1.007646609019234461e+03,2.460782640115752784e+01,8.810000025930030176e+00,1.953999996859008803e+01,9.120000023866913352e+01,8.343984347902733134e-07,1.901004694611295918e+02,4.903000034796708206e+01,5.059200095360218086e+01,6.577000027708173491e+01,3.216199996121734443e+02,9.789999977698416345e+00,3.816700001396795869e+02,4.219999996889341354e+00,1.580000066360993571e+01,1.294117627972201978e+00,3.146000026108485770e+01
1.007028588994788151e+03,2.536276713200437172e+01,6.599999998369556309e+00,1.571000017497910228e+01,9.150999980246530185e+01,8.343984347902733134e-07,1.291534325820775564e+02,3.427999956524752889e+01,4.250399894276355894e+01,5.649000017649085237e+01,3.220600023165418975e+02,7.880000002537378201e+00,2.519000047981570845e+02,3.419999983748723604e+00,2.407000056631611073e+01,1.795185280816177675e+00,2.420999995542278427e+01
1.010830743872078983e+03,2.637132787033037573e+01,3.109999958763367101e+00,8.180000537824302143e+00,9.539000013480236362e+01,8.343984347902733134e-07,7.630697018895347128e+01,1.154000013023442861e+01,2.419199838138702319e+01,3.315999987151778328e+01,3.219999976890665039e+02,3.910000063950578753e+00,1.679300003699340778e+02,1.509999955737912902e+00,4.329000002273382108e+01,1.623534314781781784e+00,1.432999951413330919e+01
1.009057844075211619e+03,2.929590421162521707e+01,3.050000115997244965e+00,9.420000154364592149e+00,9.718000013194249220e+01,8.343984347902733134e-07,1.179181397399483728e+02,5.620000304030424942e+00,2.457599839995242519e+01,3.385000028824974549e+01,3.219999976890665039e+02,4.920000042778511329e+00,1.679300003699340778e+02,1.870000051956022702e+00,4.051000015953845690e+01,5.038741355127580590e-01,1.632000010918877209e+01
1.006687703999466294e+03,2.912140457121590131e+01,3.129999906352074479e+00,9.359999666885773451e+00,9.649000025215946152e+01,4.630005315217829320e+00,1.011567190887551817e+02,5.299999609874362250e+00,2.648399897814072546e+01,3.670000013311847198e+01,3.221100007074424525e+02,4.070000087030159364e+00,3.740299988708583783e+02,1.610000067859805650e+00,3.468000023639650919e+01,2.455532199070968424e+00,1.593999948844111714e+01
1.004103386010954523e+03,2.602025648806979063e+01,4.700000024071647076e+00,9.530000042496723722e+00,9.587000000238253961e+01,2.944000494575510629e+01,1.588838197082468469e+02,1.197000021939754433e+01,3.348000109816448600e+01,4.529000003276517816e+01,3.220999991554352846e+02,5.160000077397882023e+00,6.183000062524619125e+02,2.469999956135619179e+00,2.578999956525674264e+01,2.799126554648688092e+00,1.560999971657358287e+01
1.000779879049005103e+03,3.229881420327252783e+01,9.530000062762606916e+00,1.560000028684697071e+01,9.265999997616521000e+01,9.079999969472254406e+01,1.568581582596659132e+02,2.477000002602437689e+01,4.120799952802728683e+01,4.997000001652558154e+01,3.219999976890665039e+02,7.289999984176192882e+00,7.709699947335120669e+02,3.389999988539743825e+00,2.324000030978620757e+01,1.634531306093160996e+00,2.843000006219486764e+01
1.006125249036417472e+03,2.796492605587082991e+01,6.370000007977362877e+00,1.481999998309653677e+01,8.873999993540927278e+01,1.576700003957039655e+02,1.849152006215550443e+02,2.298999978024882296e+01,3.271200106103368199e+01,4.149999991727376170e+01,3.219999976890665039e+02,5.840000041996564306e+00,4.427300003021015868e+02,2.519999935341389552e+00,3.029999997035707437e+01,2.984136791755213736e+00,2.658000004992950949e+01
1.008531179011998688e+03,2.747265557452514173e+01,5.839999986207936367e+00,1.351999987907743161e+01,8.619000000766081371e+01,1.998300023733625892e+02,1.318048883671235103e+02,1.889000004555871470e+01,3.062399998820139047e+01,3.903999980131700909e+01,3.219999976890665039e+02,5.090000033928182788e+00,4.694499998688451683e+02,1.909999943094427888e+00,3.301000065962038121e+01,9.483312545237405633e-01,2.460000029742790417e+01
1.008924264952667954e+03,2.188014275240175621e+01,7.660000025878083818e+00,1.431999994308919000e+01,8.288999993613566630e+01,3.303000048102209121e+02,1.321469416148722757e+02,2.641000020913782720e+01,3.314399913815388743e+01,4.019000020815324348e+01,3.220600023165418975e+02,6.119999948896294839e+00,3.282300033233145768e+02,2.549999968977957110e+00,3.360999988096889979e+01,3.175734053058644868e+00,2.472000031640668283e+01
1.010810658028991497e+03,2.569973429140026866e+01,9.259999872616806016e+00,1.617000009111637837e+01,7.931999986896013866e+01,4.218999923217100445e+02,1.969802754694763394e+02,4.576999978409376979e+01,3.631200058716235191e+01,4.269999997120646640e+01,3.219999976890665039e+02,7.890000003979851684e+00,2.480799972123800217e+02,3.560000006222815649e+00,3.640999966691443035e+01,2.372059832207915608e+00,2.826000031563236803e+01
1.004857578030642912e+03,3.130308606674713445e+01,2.181000019936599443e+01,2.057999998392878638e+01,7.813999977367302563e+01,3.852999889969431706e+02,1.664286237599419280e+02,7.088000038318591578e+01,5.650800010576195120e+01,5.509999973728929490e+01,3.216600011356345021e+02,1.120999998229538974e+01,1.755699970045109808e+02,5.520000071080778170e+00,3.161999948839869390e+01,1.904514781098743059e+00,3.199000006458368262e+01
1.007128434011274749e+03,3.035845117896638001e+01,8.410000048215025004e+00,1.547000003510609112e+01,7.815999990842860257e+01,4.960599977570090573e+02,8.514976504933483170e+01,1.843999997326863749e+01,3.669600060572775391e+01,4.462000001434125096e+01,3.219999976890665039e+02,6.719999968699954529e+00,1.564800061172924188e+02,2.880000031559498908e+00,4.354000004026094928e+01,7.846488637620003814e-01,2.775999967590593798e+01
1.010824790837458977e+03,2.526734120338496581e+01,9.400000018708187355e+00,1.638999986738064507e+01,7.573999987467990991e+01,6.480800080825326859e+02,2.567508471115143607e+02,3.226000024504194386e+01,3.737999885701199076e+01,4.417000000085985079e+01,3.220600023165418975e+02,7.190000003123838468e+00,1.717500079557111121e+02,3.140000015655715959e+00,4.353000003614020841e+01,2.555752094163077359e+00,3.136000024526921237e+01
1.004305695983577380e+03,2.731178780976829756e+01,5.819999974497925166e+00,1.341999987107596226e+01,7.249999992687534700e+01,5.837999818811558725e+02,1.764476413234463337e+02,1.854999997085361585e+01,3.079200096820668620e+01,3.935000009487462336e+01,3.220600023165418975e+02,5.600000007377193612e+00,1.641200027518693219e+02,2.180000015258010126e+00,5.271000005735956506e+01,6.677803737279363050e-01,2.524000039864804279e+01
1.004164542068848391e+03,2.632398723068280688e+01,5.639999997350432892e+00,1.319000021468103157e+01,7.312999996348392528e+01,3.952999928878202240e+02,1.062855867294570231e+02,1.192000023145124388e+01,3.277200122591501952e+01,4.274000001256531789e+01,3.219999976890665039e+02,5.529999963907493488e+00,1.908300074121945613e+02,2.250000016888158871e+00,5.091000034152254017e+01,1.521112088429702247e+00,2.323000036107764643e+01
1.010119074173819854e+03,2.170141900929478140e+01,8.989999938956220404e+00,2.029000002860110996e+01,7.486000011744960148e+01,1.701100006835522720e+02,1.458679539605104196e+02,2.062000006235680161e+01,4.527600085856791168e+01,5.717999973007169956e+01,3.219999976890665039e+02,7.800000000383571219e+00,2.328200053416736353e+02,3.210000017285865148e+00,3.377999969454751295e+01,1.918396808451799052e+00,3.600000013814290867e+01
1.007947486001057882e+03,2.742110454290325450e+01,5.440000008492930306e+00,2.225000006476043168e+01,7.944000011640133607e+01,1.510999619461028942e+01,1.545289604740116545e+02,2.018000007201689172e+01,4.291200058229418346e+01,5.883999988200256581e+01,3.219999976890665039e+02,9.089999943470019161e+00,2.709800042546405621e+02,3.900000003161370632e+00,2.870999974261636467e+01,1.188140750248856348e+00,4.219999999741659735e+01
1.011354026084204406e+03,2.856144197244169902e+01,3.159999955977742747e+00,2.149000001149110517e+01,8.375000001449788556e+01,8.343984347902733134e-07,8.927867120481400320e+01,2.160000001892921517e+01,3.788399920534005361e+01,5.452000016257792225e+01,3.219999976890665039e+02,1.002000004424769664e+01,2.938799927599237662e+02,4.629999995458045525e+00,3.196000048341687716e+01,1.999140549314840420e+00,3.838999999052917644e+01
1.007042139004725072e+03,2.661809032807030917e+01,2.950000121568493228e+00,2.051999998666974889e+01,8.655000004861901175e+01,8.343984347902733134e-07,1.548074077720413015e+02,1.528999994930043727e+01,3.241200023662702279e+01,4.625999998375186095e+01,3.220500007645347296e+02,8.380000007916299509e+00,6.946299955091308220e+02,3.780000000709933250e+00,3.542999977603002293e+01,8.856104020623680739e-01,3.578000010334848469e+01
1.002566013878876106e+03,3.005322316184001963e+01,2.959999967120239717e+00,2.080999999856124560e+01,8.718999987205923219e+01,8.343984347902733134e-07,1.816243996372922425e+02,2.016999992980893097e+01,3.291600058495508563e+01,4.704000008893915208e+01,3.221599990983430075e+02,8.940000021950064379e+00,4.847199993901417088e+02,4.309999982516281136e+00,3.412000000563520530e+01,1.820441447983306871e+00,3.705000002388310065e+01
1.001768178071595798e+03,2.898143816673968587e+01,4.139999952676551409e+00,1.612999996724630591e+01,8.965999996215073509e+01,8.343984347902733134e-07,2.029442827011163217e+02,4.250999922022046462e+01,3.820799905902412519e+01,5.353000035275265134e+01,3.220500007645347296e+02,7.560000006436792930e+00,3.282300033233145768e+02,3.689999998270923953e+00,2.701000023896934010e+01,5.327950522349571560e-01,2.638000001829821173e+01
1.009577172911992875e+03,2.942302495646907445e+01,6.729999998340580269e+00,2.129999998874647105e+01,9.047999987620659113e+01,8.343984347902733134e-07,1.207895237630417000e+02,3.273000042097456941e+01,4.337999979501832115e+01,5.767999986942870549e+01,3.215599996692657214e+02,1.072999991305664835e+01,6.259299929193264234e+02,5.539999939794805428e+00,2.013000013962388479e+01,4.811109248000491334e-01,3.366000004838087989e+01
1.006189587979471412e+03,2.451869095946491939e+01,3.115000060235816548e+01,2.731999977658541567e+01,9.008999977338810083e+01,8.343984347902733134e-07,8.392902645744638335e+01,6.860999967706180769e+01,7.298400001144095484e+01,6.660999995878479751e+01,3.220600023165418975e+02,1.526999983374730263e+01,1.343469966883275220e+03,8.429999875344936555e+00,1.515000133616641875e+01,1.227293757038607325e+00,4.283000009705516931e+01
1.012178385055789022e+03,2.804486377262551500e+01,4.108000010043024020e+01,2.513999996416182725e+01,9.076999986633947515e+01,8.343984347902733134e-07,1.293506390727801261e+02,9.276000012193512134e+01,8.156400002131037752e+01,6.482999935909570866e+01,3.219999976890665039e+02,1.447000025230754083e+01,9.732500134541251100e+02,7.900000126505840825e+00,1.626000136611172664e+01,1.325631285943396298e+00,3.927999999112638108e+01
1.007323204002165085e+03,3.251443867308366720e+01,1.583000022474438850e+01,1.788000010727202849e+01,9.229999979493393880e+01,8.343984347902733134e-07,1.585816454690920523e+02,5.105999956934945772e+01,5.262000056570923334e+01,5.818999961452334446e+01,3.220500007645347296e+02,9.820000015398221649e+00,3.969300012788745562e+02,5.000000026033168510e+00,1.712000018165155879e+01,1.992892662722993702e+00,2.707999956835953981e+01
1.008645033058608533e+03,2.694096967511980267e+01,3.470000041300958848e+00,1.888000003644987146e+01,9.347000010338942388e+01,8.343984347902733134e-07,1.732629322494621533e+02,2.532999979461047246e+01,3.496800052218345201e+01,4.949999998910812593e+01,3.221100007074424525e+02,9.049999937700123454e+00,5.686800031191410199e+02,4.120000000050212385e+00,2.129000095959467842e+01,2.689648515817976815e+00,2.936999965021374948e+01
1.005907374954951933e+03,2.865434653962398315e+01,4.809999992294751614e+00,2.428999989614933597e+01,9.383999951036003040e+01,8.343984347902733134e-07,6.859775804487314588e+01,2.763999962337940275e+01,3.780000001118131792e+01,5.187000020082177798e+01,3.219999976890665039e+02,1.128999999383518116e+01,6.297500005051035714e+02,4.949999969972221692e+00,1.767999972848237178e+01,2.250120793382491602e+00,3.750999995647302399e+01
1.004531948016045590e+03,2.634494434481701930e+01,1.451999993864844107e+01,2.501000001409465767e+01,9.504999952723439094e+01,4.619994990893445674e+00,1.407904287904624994e+02,3.326000000396794576e+01,4.887600038469658159e+01,5.432999988520296597e+01,3.220500007645347296e+02,1.213999994958353312e+01,3.778499971881468014e+02,5.819999946315400408e+00,1.572999901042986792e+01,1.662627171479546195e+00,4.002999993454116634e+01
1.008294442042906667e+03,3.001744075019687585e+01,2.498000048443080345e+01,3.576000057257894582e+01,9.292999983154251709e+01,3.512000189632158254e+01,1.534223656876920927e+02,4.606000077471945531e+01,6.123599936246549902e+01,5.765000018906471269e+01,3.220500007645347296e+02,1.494999978758814052e+01,9.160000051169624840e+02,6.899999927549026246e+00,1.723999988913516290e+01,1.507734258702647212e+00,6.040000035294736591e+01
1.003223855084248726e+03,2.614922862170754314e+01,2.736999947922823750e+01,3.536000054057306841e+01,9.097999987854232984e+01,5.958999782211130025e+01,1.830381124460133435e+02,6.067000101271456458e+01,6.446399968051137819e+01,5.904999937085277395e+01,3.220600023165418975e+02,1.609999985335547734e+01,1.011419985260849785e+03,7.849999993589719338e+00,1.816000129413874475e+01,1.762203762575512922e+00,5.846000060677202015e+01
1.007813120006940380e+03,2.823497182753454737e+01,2.865000022866894724e+01,3.274000057227353011e+01,9.102000014805349792e+01,7.466000150249439571e+01,9.938100548184024774e+01,6.413000152837307155e+01,6.493200018907943161e+01,5.782999999755092091e+01,3.216099980601662764e+02,1.533000017612598320e+01,6.030300044140432192e+02,7.729999859043447330e+00,1.866000098722775391e+01,6.324398035339258151e-01,5.329999979068466587e+01
1.006195528021954829e+03,2.700932209533775463e+01,2.435999980081394511e+01,2.758000028006717486e+01,8.897999986919936077e+01,1.199899999874971428e+02,1.125959829331905411e+02,4.599999943940935054e+01,5.856000004299031758e+01,5.441999978944607363e+01,3.215599996692657214e+02,1.217000012077287430e+01,4.465499997779511432e+02,5.360000045396102308e+00,2.207999948981541394e+01,1.964445738626899862e+00,4.568000026747699849e+01
1.007984288016573828e+03,2.950563190578262152e+01,1.584000007029613499e+01,1.781000004133625580e+01,8.291999999799597276e+01,5.211399908438592092e+02,2.147182341194931610e+02,4.426999918158008995e+01,4.495200100488385431e+01,4.613999996756920297e+01,3.219999976890665039e+02,8.559999967136059595e+00,2.442699995943152658e+02,4.029999995209479380e+00,3.159999999310508656e+01,7.327797809825141728e-01,2.891999985936743656e+01
1.009489527958908411e+03,2.731502632022870358e+01,1.389999976800200976e+01,1.486999998709727322e+01,7.520000016392529574e+01,7.049399899166750174e+02,1.599944295224391908e+02,4.894999921030338896e+01,4.417199886142651621e+01,4.791000009836955087e+01,3.221599990983430075e+02,7.909999998521703546e+00,1.450299933276735374e+02,3.879999999950786371e+00,3.894999985866864733e+01,2.469767423803670869e+00,2.373999960076514526e+01
1.010420017999244351e+03,3.169715392448837576e+01,8.939999941741843870e+00,1.235000002679920250e+01,7.313999975031556744e+01,7.521399963734222638e+02,1.425495041126769706e+02,2.874000032232267898e+01,3.847199874782685924e+01,4.657000006152169647e+01,3.221599990983430075e+02,7.029999980044258301e+00,1.183199886673482979e+02,3.349999982118574859e+00,4.533000000845116517e+01,1.725979426634909331e+00,1.949999893018173580e+01
1.008884727056805787e+03,2.989339021922099704e+01,9.789999894386232526e+00,1.502999987923013947e+01,7.235999954467858686e+01,4.718699932074894150e+02,1.255369154789397186e+02,3.125999952199126497e+01,4.276800122325411735e+01,5.202000032894399340e+01,3.221100007074424525e+02,7.820000000139857299e+00,1.183199886673482979e+02,3.599999993430190504e+00,4.154000015651786271e+01,8.446327731736048561e-01,2.497999979687916294e+01
1.007915530993929679e+03,2.869792793538428199e+01,6.499999987910479504e+00,1.670000007318942892e+01,7.570000016626103445e+01,5.001399925965111493e+02,1.490276711239523024e+02,2.111999994181979901e+01,3.368400062208588253e+01,4.281999998738913149e+01,3.219999976890665039e+02,6.989999974274362593e+00,2.977000003457009143e+02,3.029999969176810026e+00,4.909999985214298590e+01,3.977105598248853457e-01,3.014999977357578942e+01
1.003996517967965360e+03,3.100780938790800434e+01,3.420000044086582758e+00,1.292999971119927594e+01,7.359000025740080275e+01,5.968599943060266924e+02,7.472495035439604294e+01,7.170000412428064962e+00,2.368799803305896035e+01,3.188000027433681893e+01,3.219999976890665039e+02,4.570000092409081560e+00,2.366300029597383627e+02,1.879999986313035887e+00,6.200000020939833689e+01,1.556665149343733567e+00,2.589000022112564636e+01
1.006712539009797410e+03,2.343177878390211077e+01,4.250000049142263592e+00,1.436000006695926068e+01,6.848000033452609614e+01,3.971300091797359073e+02,2.126022489118958276e+02,1.052000008689250521e+01,2.765999806311432252e+01,3.683000018661432051e+01,3.219999976890665039e+02,4.730000115488660839e+00,1.832000022083527710e+02,1.789999962258508770e+00,6.187000007033743998e+01,2.765209467322948811e+00,2.864999953634109175e+01
1.005827952988690868e+03,2.848170097015779234e+01,4.339999941534054884e+00,1.728999993939387281e+01,6.971999971189538314e+01,1.900300002969144941e+02,1.343068944237185178e+02,1.136999988197960398e+01,3.019199931939335357e+01,4.064999998246972979e+01,3.216499995836272774e+02,8.340000002146403801e+00,2.099199982994131233e+02,4.279999987307300913e+00,6.008999984979402598e+01,2.705122664124360643e+00,2.859000008749990229e+01
1.012950854187208620e+03,2.717194959040902447e+01,3.029999911923322742e+00,2.322999993200323843e+01,7.534999977186140541e+01,5.724000286185143693e+01,1.201717014351114301e+02,8.779999927886457556e+00,2.732400128647938686e+01,3.818000004498757249e+01,3.217599979174355553e+02,1.393999980876020928e+01,2.671700066365758062e+02,7.849999993589719338e+00,6.704000023445857437e+01,7.114711034571664650e-01,3.551000006064624159e+01
1.002022001112423936e+03,2.944097248742436790e+01,2.749999876225775353e+00,1.831999996147427012e+01,8.043000005369503924e+01,8.343984347902733134e-07,1.752723588701944379e+02,7.059999571233992910e+00,2.670000060838865608e+01,3.762000011332701632e+01,3.221100007074424525e+02,1.011999999192766708e+01,2.938799927599237662e+02,5.710000053546846921e+00,6.508999951640608117e+01,2.496463252481097239e+00,2.945000022351446134e+01
1.005775031026838519e+03,2.960195564856361017e+01,2.729999928637067974e+00,1.535000026684329555e+01,8.261000001338057075e+01,8.343984347902733134e-07,1.124680974562161566e+02,6.970000460642864937e+00,2.468399921507639050e+01,3.444999993758748502e+01,3.221599990983430075e+02,7.579999992635548800e+00,2.862500060930592554e+02,3.780000000709933250e+00,6.447000011583345724e+01,5.621283362050680799e-01,2.568000046823688720e+01
1.006903537999959553e+03,2.845325226032416666e+01,3.000000118782868874e+00,1.781999992146691980e+01,8.547999999312220609e+01,8.343984347902733134e-07,1.738572874119039966e+02,9.379999783242055855e+00,2.953200009738652199e+01,4.164000000808278656e+01,3.221599990983430075e+02,7.640000001290391474e+00,2.786200008892174083e+02,3.389999988539743825e+00,4.461000000029123669e+01,1.895852573777671024e+00,3.130000023577982304e+01
1.007420027993859435e+03,2.818785874707384664e+01,2.979999914708947095e+00,1.498999975536006879e+01,8.784000004342338741e+01,8.343984347902733134e-07,1.165505520496010234e+02,6.500000284710241161e+00,2.608799944493662082e+01,3.631999957836856652e+01,3.219999976890665039e+02,6.319999977745770714e+00,7.366199934386097539e+02,2.969999978758850467e+00,3.964999997613765004e+01,9.303041283871958944e-01,2.532000041130056189e+01
1.005813525032773782e+03,2.703610021441009792e+01,2.879999920280195358e+00,9.059999642881365389e+00,8.777000013287114655e+01,8.343984347902733134e-07,1.637660154389853631e+02,5.869999761699585150e+00,2.289599896665075818e+01,3.147000003922291356e+01,3.219999976890665039e+02,4.010000011630548755e+00,3.816700001396795869e+02,1.760000005477116769e+00,4.348000001553652538e+01,1.960564211110684685e+00,1.530999910847844703e+01
1.011779761828868914e+03,2.836408131544576605e+01,2.940000019531532338e+00,6.810000066195714297e+00,8.869999994644425101e+01,8.343984347902733134e-07,1.992347555749658738e+02,4.109999800339954490e+00,2.164799761046929660e+01,2.943000019569325332e+01,3.219999976890665039e+02,2.980000096662435816e+00,1.450299933276735374e+02,1.190000058078912293e+00,4.542000000279214333e+01,1.722148197467219699e+00,1.199999942595284352e+01
1.005025957061632880e+03,2.496594033087098552e+01,3.079999909137698388e+00,7.659999530860789108e+00,8.983000026593472853e+01,8.343984347902733134e-07,1.133268513422068935e+02,4.089999997986369706e+00,2.237999910368399270e+01,3.035000017590179056e+01,3.220399992125275617e+02,3.920000032020668712e+00,4.847199993901417088e+02,1.750000071120103140e+00,4.414999999240635020e+01,2.746825777381856515e+00,1.235000088292810005e+01
1.005826651986264665e+03,2.998734082460097738e+01,2.870000074728448869e+00,1.678999989938652249e+01,9.116999975598960759e+01,8.343984347902733134e-07,8.092238323742333250e+01,8.029999626629617637e+00,2.650799800741812362e+01,3.714000004859637727e+01,3.221100007074424525e+02,8.679999984445744943e+00,6.984500030949078564e+02,4.179999990468171944e+00,3.873999968664185189e+01,1.806437833283815131e+00,2.625999999931944018e+01
1.005755868002028933e+03,2.832761036786344988e+01,2.679999931422692327e+00,2.270999998089770955e+01,9.445999976013696653e+01,8.343984347902733134e-07,1.894114111362372341e+02,7.010000065350032727e+00,2.666400206447254817e+01,3.768999994294375000e+01,3.220500007645347296e+02,1.325999984416152699e+01,3.587699977316633522e+02,6.250000044163659396e+00,4.021999995454575583e+01,1.572937931214049678e+00,3.582000010967474424e+01
1.006581035004482032e+03,2.955674096509111948e+01,2.659999983833984949e+00,1.936000001452218200e+01,9.593999963238861994e+01,8.343984347902733134e-07,1.849831147088256671e+02,5.189999732804970733e+00,2.536799746636062736e+01,3.567999977977808612e+01,3.216099980601662764e+02,1.239999992034308463e+01,8.358500082745165400e+02,6.119999975260375535e+00,3.728000028189252646e+01,9.260702351963101542e-01,2.951000023300385067e+01
1.009267314033109642e+03,2.330477591245839619e+01,3.739999974961544904e+00,2.347000007187624959e+01,9.693999963706011158e+01,6.620000730815746692e+00,7.034478828346922796e+01,7.229999819488817536e+00,3.146399970485222042e+01,4.358000001795004863e+01,3.219999976890665039e+02,1.422999995070910018e+01,1.988480031925793810e+03,7.849999993589719338e+00,2.634000004837123754e+01,2.171820997787807350e+00,3.760999997228866931e+01
1.005869269959945541e+03,2.505433648753777476e+01,9.669999952368772966e+00,2.900000015234907380e+01,9.444000018647368222e+01,6.596999802208729591e+01,2.329741853892375048e+02,1.022000015921470428e+01,4.272000057301148246e+01,5.211000023318709395e+01,3.219999976890665039e+02,1.373999991340026838e+01,1.572470000231925951e+03,6.780000100423459131e+00,2.238000012638540426e+01,1.526116333502380407e+00,5.145999949967676912e+01
1.005973484029536166e+03,2.814783910431841818e+01,1.235000011084157379e+01,1.904999995955025582e+01,8.659000003758403352e+01,2.385199989198500816e+02,1.401503758175803682e+02,1.521000001679259128e+01,4.452000033607581742e+01,5.083999981016820158e+01,3.219999976890665039e+02,8.889999981365310333e+00,6.335700080908806058e+02,4.349999988937449658e+00,2.813999976420825888e+01,1.217032953346897095e+00,3.327999998828142481e+01
1.012067605061659151e+03,2.301621731159880824e+01,1.096000003439079862e+01,1.496999999509874257e+01,7.998000010770209656e+01,4.318500066128011667e+02,1.525259914618076778e+02,1.601999996614135213e+01,3.945600041520558676e+01,4.503000003366737758e+01,3.220900022879957874e+02,6.260000035835695975e+00,2.175500035032549420e+02,2.870000020347309722e+00,3.720999999657342983e+01,5.191079606861868090e-01,2.781000052478605511e+01
1.006333754987198972e+03,3.035372410270618460e+01,5.559999950510388977e+00,1.436000006695926068e+01,7.223000007149803992e+01,5.714699912743004688e+02,1.296478856209842832e+02,1.092999989163969587e+01,2.918399862273722078e+01,3.720999987821311095e+01,3.221700006503501754e+02,5.970000027376340057e+00,1.908300074121945613e+02,2.540000034620943481e+00,4.857999997982987850e+01,8.964998757031491516e-01,2.701000039826088539e+01
1.013230141815650995e+03,3.063160831431381581e+01,7.200000013033044155e+00,1.731999988145957303e+01,6.589000055808570266e+01,7.521000046935935188e+02,8.599244962823662775e+01,1.406999995417331206e+01,3.458400050361805000e+01,4.315999996131073857e+01,3.222300005932579552e+02,7.309999987061139848e+00,1.221300048223902763e+02,3.219999990070466112e+00,5.201999968753736425e+01,1.765385529169741119e+00,3.040999981469646940e+01
1.011018956999974534e+03,2.609305481766801194e+01,6.839999998624337607e+00,1.493999975135933411e+01,6.494999927440407816e+01,6.765500154881671051e+02,2.137268015511946828e+02,2.203000010809233089e+01,3.498000003682215464e+01,4.432999999771104882e+01,3.216600011356345021e+02,6.420000058915276142e+00,1.030500053659068271e+02,2.749999962656214603e+00,5.894999989297781440e+01,1.275696451899708705e+00,2.667999950509695495e+01
1.003789788032834053e+03,3.134280559112087516e+01,5.839999986207936367e+00,1.094999991477862622e+01,6.486000007073469931e+01,6.493799857643111864e+02,1.445813398304301813e+02,2.094000003341935567e+01,3.326399946791655537e+01,4.318999996535640662e+01,3.217099995265350572e+02,5.869999946206834629e+00,8.015001686062356612e+01,2.610000036251092670e+00,6.201999970469194778e+01,1.622365096006056939e+00,1.854000102094432023e+01
1.010385820059790944e+03,2.420282271519777950e+01,5.980000004056710061e+00,1.244000015467000964e+01,6.577999953638386899e+01,6.419700137432369047e+02,1.259853192631541958e+02,1.435999998067432060e+01,3.342000093328314847e+01,4.321000003998277350e+01,3.221599990983430075e+02,5.949999957746625157e+00,9.160001111326516821e+01,2.709999994662633416e+00,6.485000010143886584e+01,4.996351332770221365e-01,2.018000015902452660e+01
1.009074435033570467e+03,2.339058690076966585e+01,8.130000012517477614e+00,1.344000023468470673e+01,6.701000024910609909e+01,6.591700085273528202e+02,1.058641570818273863e+02,2.358000021648997091e+01,3.823200067998934770e+01,4.744999989247749994e+01,3.220500007645347296e+02,6.529999974665336993e+00,1.183199886673482979e+02,2.950000033189647652e+00,5.804999935112881815e+01,1.233376490785295321e+00,2.285999946158745644e+01
1.005272008921892962e+03,3.108494884660954583e+01,4.159999900265258788e+00,1.117000029439031117e+01,6.842000049135165796e+01,4.518900060743840186e+02,2.067797297452195266e+02,1.484999995896052916e+01,2.813999938216498720e+01,3.772000005488330743e+01,3.216099980601662764e+02,5.189999981608152346e+00,1.259499938711900882e+02,2.220000060106767314e+00,6.881000002342469202e+01,1.321200555908280894e+00,1.892999912035665133e+01
1.007270423988819061e+03,2.825509154644760912e+01,3.559999933692749252e+00,1.229000014266780560e+01,7.018999979264390277e+01,3.818199933985443408e+02,1.470430019260193717e+02,1.008000009655259532e+01,2.542800022292978923e+01,3.435000042760675854e+01,3.219999976890665039e+02,5.150000109327792508e+00,1.450299933276735374e+02,2.139999970409252938e+00,6.851000075471569062e+01,5.347060726389367691e-01,2.172999956319475245e+01
1.009444439972950704e+03,2.607095277872915773e+01,6.589999992514551153e+00,1.774999985553115067e+01,7.297000000762386662e+01,1.986899976130828236e+02,1.385405421015768752e+02,2.719000021392504252e+01,3.892800103760011865e+01,5.092000010867367621e+01,3.222199990412507304e+02,8.770000030800392921e+00,1.793799946225756798e+02,4.200000012892551204e+00,4.532000000433042430e+01,1.355506722742614301e+00,3.002000003333954936e+01
1.006551643002260221e+03,2.929923275881327172e+01,6.109999983989826688e+00,2.107000000239592197e+01,7.729999972486157844e+01,3.698999746369884178e+01,1.993197458872803622e+02,3.238000002328812599e+01,4.301999880573032442e+01,5.804999995528987000e+01,3.223500004790734010e+02,1.080999992459643977e+01,2.366300029597383627e+02,5.719999987903859662e+00,3.506999996964871258e+01,2.649502829534825743e+00,3.414000012429598740e+01
1.006483819012726030e+03,2.605131139995548750e+01,2.820000077514073222e+00,1.834999990353996679e+01,7.965000012860419076e+01,2.800046150356934049e-01,1.465316537003997439e+02,1.345000005543295885e+01,2.882399763344922405e+01,4.084000004405690731e+01,3.223000020881728460e+02,9.280000004249405521e+00,2.289999977558965725e+02,5.029999982814560511e+00,4.478000000088208310e+01,1.343958598168641272e+00,2.926000047378883195e+01
1.008069489035800302e+03,2.660649412647948964e+01,2.779999925851443621e+00,1.548999979536741733e+01,8.220000005635264984e+01,8.343984347902733134e-07,1.271014303437076052e+02,1.165000000730382013e+01,2.601600235710441211e+01,3.650999985574351570e+01,3.222199990412507304e+02,7.770000000227697434e+00,2.099199982994131233e+02,3.800000000317931281e+00,4.377999996817602835e+01,1.809732672149728883e+00,2.427000052556036991e+01
1.008684943960593614e+03,2.834220020090358716e+01,2.920000071942824960e+00,1.324000021868176802e+01,8.485999998882316220e+01,8.343984347902733134e-07,8.356139105672394862e+01,1.096999997840920393e+01,2.588400251270304864e+01,3.606999994026561751e+01,3.222199990412507304e+02,5.829999940436939809e+00,2.328200053416736353e+02,2.639999993032484671e+00,4.086999996591976014e+01,8.500537469946919389e-01,2.191999987356857815e+01
1.007307394996255880e+03,2.848978115644631259e+01,2.920000071942824960e+00,1.604000014104921235e+01,8.504999997147524482e+01,8.343984347902733134e-07,1.303510109115529190e+02,6.710000137672233578e+00,2.600399765909006078e+01,3.619999999376146604e+01,3.222000006218040653e+02,5.939999989676534753e+00,2.900699951418590672e+02,2.590000013826713854e+00,4.059999994015116442e+01,1.587260185456388140e+00,3.046000010292839022e+01
1.005211259009484706e+03,2.768461781660979071e+01,3.120000060800327990e+00,1.824000001540783700e+01,8.377000000898038934e+01,8.343984347902733134e-07,1.486048713322561525e+02,1.077999992780079630e+01,3.283199879910852559e+01,4.659999995767347514e+01,3.219300008787192837e+02,7.149999997353943648e+00,2.595299914650216806e+02,3.349999982118574859e+00,3.192000012496868422e+01,1.456642077481636655e+00,3.335000027967647895e+01
1.006272885980205842e+03,2.940374227986279365e+01,3.331000007164286103e+01,2.292000002786816637e+01,8.332000002791917836e+01,8.343984347902733134e-07,1.366745191037670395e+02,5.367000077198321151e+01,7.537200004590428648e+01,6.685000085430124273e+01,3.221700006503501754e+02,1.289999992572200682e+01,2.175500035032549420e+02,7.580000075136488213e+00,2.044000120777116791e+01,2.291256842266610860e+00,3.670999997010990512e+01
1.006357888022036946e+03,2.798911212475740484e+01,5.363999899030510221e+01,3.318000012480205640e+01,8.385999998415167056e+01,8.343984347902733134e-07,1.797249155834013834e+02,7.536999843305144964e+01,1.001639993007670455e+02,7.460999873589248921e+01,3.221100007074424525e+02,1.797999972407194136e+01,1.087749993054495917e+03,1.029999974322422673e+01,1.844999876340949641e+01,2.010035805285451893e+00,5.115000029162055739e+01
1.007114835010156298e+03,2.813979244489520681e+01,1.502999975634394580e+01,2.518000008803189971e+01,8.597999999545795902e+01,8.343984347902733134e-07,1.907635088421546357e+02,2.982000025478769700e+01,5.831999938346498880e+01,6.833999994033240455e+01,3.219999976890665039e+02,1.311999975722212497e+01,2.545719956593919051e+03,7.300000068615892346e+00,2.085000112024747310e+01,9.119651128847940935e-01,3.713000003653561976e+01
1.001209641979412709e+03,2.917167524714300697e+01,5.430000034698576172e+00,1.683999990338725894e+01,8.814000010093405990e+01,8.343984347902733134e-07,2.280336481884985460e+02,2.796000031753546722e+01,4.848000085149248406e+01,6.766000085564030542e+01,3.220500007645347296e+02,1.033000012233676834e+01,1.583919994484567496e+03,6.079999930411617903e+00,2.201000057235729201e+01,1.229791109647898839e+00,2.424999996174904382e+01
1.008366940989165414e+03,2.711486895524571139e+01,1.622000035690764719e+01,1.864000004741371441e+01,8.963000004056351600e+01,8.343984347902733134e-07,1.059311010335341336e+02,5.591000177457693354e+01,6.263999959232573644e+01,7.328999898945878044e+01,3.215400012498189994e+02,1.181999990342437279e+01,3.282300033233145768e+02,7.340000113464649978e+00,1.922000053405857045e+01,1.994517576615360444e+00,2.718000014482338500e+01
1.011224055009781637e+03,2.639821881612735055e+01,1.138000021617972735e+01,2.050999999341144431e+01,8.978999999642356045e+01,4.069997753943340513e+00,1.346373615056497215e+02,4.431000071453662059e+01,5.157600002929308403e+01,6.335999948453979158e+01,3.215799980887123866e+02,1.109000009847524026e+01,4.351000008910651786e+02,6.479999917768132889e+00,2.409000006160971807e+01,2.211906801312713888e+00,3.100999990959034847e+01
1.009640724042013744e+03,2.926066288829675344e+01,4.940000036349172063e+00,2.061999999467121825e+01,8.752999991853492645e+01,5.617000214782278533e+01,6.654816045531792668e+01,2.033000003585579307e+01,3.524399972562488870e+01,4.763999995406467747e+01,3.216399980316201095e+02,8.059999995129523143e+00,3.816700001396795869e+02,3.759999999901073142e+00,3.259000031556678323e+01,2.644261979248458516e+00,3.499999997998644830e+01
1.007903353031281540e+03,2.754295791722957176e+01,8.389999972383709093e+00,1.769999985153041422e+01,8.351999997274424459e+01,1.938900005831650333e+02,9.276289239240092854e+01,2.428999994891496428e+01,3.879600119319874807e+01,4.792000013568273431e+01,3.219999976890665039e+02,7.460000008698246532e+00,3.587699977316633522e+02,3.590000001431795429e+00,3.455999984498241417e+01,1.807832760947923667e+00,3.227000010886749237e+01
1.008567549086047620e+03,2.532085572705091892e+01,1.156999984651505287e+01,1.523999977536374217e+01,8.053999995321228766e+01,3.461700033439526578e+02,1.015927674379268097e+02,3.335000007868374894e+01,4.288799896132895384e+01,4.947999991448175905e+01,3.221100007074424525e+02,7.490000013025667869e+00,2.137299959174778508e+02,3.510000007803251165e+00,3.484000030232830625e+01,2.904461197710860532e+00,2.588000049986818141e+01
1.011360078913496409e+03,2.912960644237978158e+01,1.076999989108504074e+01,1.511000012697028438e+01,7.710999984741430069e+01,5.644199939891536815e+02,1.490750755798646878e+02,3.006999971245685543e+01,4.011599963721241835e+01,4.635999992530815206e+01,3.220900022879957874e+02,7.640000001290391474e+00,1.908300074121945613e+02,3.440000006173102420e+00,4.040999994734846013e+01,1.507810896850713123e+00,2.501999980320542250e+01
1.006045852018824462e+03,2.411620341180958604e+01,9.749999999208817769e+00,1.748999995539681152e+01,7.412999996815541692e+01,5.676499919711541224e+02,1.578982953115103669e+02,2.578000016818950968e+01,3.903599926103625251e+01,4.623000008760008939e+01,3.219999976890665039e+02,7.739999999028936983e+00,1.679300003699340778e+02,3.310000014124993672e+00,4.403999998982389030e+01,9.764130205305389110e-01,2.990000001436077071e+01
1.012032415953992199e+03,2.222759570360938142e+01,1.295000007741408510e+01,1.560000028684697071e+01,7.573000008784825354e+01,5.490000010884330095e+02,1.793512800551392843e+02,1.501999996618418187e+01,4.587599991569341995e+01,5.204000040357036028e+01,3.210999985454505463e+02,7.049999982929205267e+00,2.099199982994131233e+02,2.839999986710742164e+00,4.894000012817642897e+01,1.232297729826918431e+00,2.737000045519721425e+01
1.008668616045926683e+03,2.971462525571540425e+01,6.299999999052976030e+00,8.480000561828711980e+00,7.201000027246354307e+01,7.904899830129785414e+02,2.093114387320352421e+02,1.278999982889192744e+01,3.116399888044555411e+01,3.918999992943922450e+01,3.216099980601662764e+02,4.750000051628841646e+00,1.679300003699340778e+02,2.049999946354725822e+00,6.379999992523535468e+01,1.403832267065977302e+00,1.431000007161837573e+01
1.011385195161217894e+03,2.970353979180330128e+01,4.530000084839810981e+00,7.590000369946146463e+00,6.628000009981190033e+01,8.034999810293290921e+02,7.556116583027232991e+01,1.301999996626984313e+01,2.572799845564862409e+01,3.337999982925673237e+01,3.221100007074424525e+02,3.699999933541477937e+00,1.450299933276735374e+02,1.590000045435426834e+00,6.907999936526280749e+01,1.123635732194785630e+00,1.456999955209085940e+01
1.010832937848527422e+03,2.870083849079050609e+01,3.209999953192118394e+00,6.910000074197185427e+00,6.519999955611810094e+01,6.664800013488552395e+02,1.034012150739747113e+02,7.549999549520201469e+00,2.201999811439599597e+01,2.958000032381546873e+01,3.219999976890665039e+02,3.110000215531746548e+00,1.373999881238317471e+02,1.240000037284682666e+00,7.515999913494927398e+01,1.046859540905437758e+00,1.398000029975084146e+01
1.005287703046246975e+03,2.409996737439125525e+01,3.079999909137698388e+00,1.113000017052024049e+01,6.786000008474917422e+01,2.896599983257807480e+02,1.305776519359665144e+02,6.320000135278625919e+00,2.318399768473089040e+01,3.160000009271875854e+01,3.220500007645347296e+02,4.879999903519081528e+00,1.526700084992277198e+02,2.360000063367064804e+00,7.190999976200973265e+01,7.003783769623436184e-01,2.067999967745456402e+01
1.004928155082153239e+03,2.966256050428836488e+01,3.329999895209577510e+00,1.266999981106493856e+01,6.918999978797241113e+01,3.061399940205728853e+02,1.317293402095359056e+02,1.061000016160831194e+01,2.552400152341505191e+01,3.488999985306539031e+01,3.220800007359886195e+02,6.249999934276070590e+00,1.755699970045109808e+02,3.049999991601188842e+00,6.663999938569858728e+01,1.637295319159635554e+00,2.186000042472738869e+01
1.010942899902930890e+03,2.749081247193144151e+01,3.859999916979004020e+00,1.391000003095264681e+01,7.190000037294629465e+01,1.272599995786249281e+02,9.235588144206198535e+01,1.819000000340824030e+01,3.015600077547725277e+01,4.133999996762614160e+01,3.221100007074424525e+02,6.919999997549430404e+00,1.984700040467714643e+02,3.200000006073675962e+00,5.422999999978117813e+01,4.794976547773412978e-01,2.312999978461380124e+01
1.008805450922570003e+03,2.636303642949895831e+01,3.470000041300958848e+00,1.461999996709359806e+01,7.443000030621223573e+01,5.039000118895003766e+01,1.100785294218052286e+02,1.890999996842788278e+01,3.097199887116285311e+01,4.323000000671525811e+01,3.220500007645347296e+02,7.430000004370825195e+00,2.404499920085382030e+02,3.580000009433399910e+00,4.867999985005463515e+01,9.015733948694216737e-01,2.678999980281826510e+01
1.004239254950490022e+03,2.814867240573285656e+01,2.770000080299697132e+00,1.334000022668323737e+01,7.870000018027550936e+01,8.343984347902733134e-07,1.700721931622455827e+02,9.740000082105288115e+00,2.553600103805375454e+01,3.578999975864755356e+01,3.222199990412507304e+02,6.689999997744917160e+00,2.328200053416736353e+02,3.189999994861486332e+00,5.211000015208055913e+01,8.414408478971744376e-01,2.183000013965859765e+01
1.012598296180864168e+03,2.693167302828349463e+01,2.840000025102780601e+00,1.468999973135565895e+01,8.139000006940150911e+01,8.343984347902733134e-07,1.293950089814310900e+02,1.054999979042288061e+01,2.696400029719139013e+01,3.785000010837914886e+01,3.223200005076195112e+02,7.140000029283853245e+00,2.251800087070967322e+02,3.470000001382082200e+00,4.605999996729975976e+01,2.320564779037464831e+00,2.321999951852378530e+01
1.004839202065698828e+03,2.947698612856384415e+01,2.840000025102780601e+00,1.640000004918501730e+01,8.346999998653798514e+01,8.343984347902733134e-07,8.840842282162088850e+01,1.176999978555000403e+01,2.755200243136601301e+01,3.882999988089124344e+01,3.219300008787192837e+02,7.400000000043403858e+00,3.358699999578914799e+02,3.490000004592666460e+00,4.099000001536861504e+01,1.202236406965649707e+00,2.827999975814729794e+01
1.008039924958378833e+03,2.562766211841323738e+01,2.870000074728448869e+00,1.557999992323822269e+01,8.565000001636005322e+01,8.343984347902733134e-07,9.401190284960838994e+01,1.459000011805223629e+01,2.618400074542188349e+01,3.665000037812811229e+01,3.223800004505272341e+02,7.369999995715982521e+00,4.923499999597392502e+02,3.590000001431795429e+00,4.225000002163367441e+01,2.097114880577776397e+00,2.532000041130056189e+01
1.002834537992926357e+03,2.983219430250653303e+01,2.859999972691487979e+00,1.406999992308551484e+01,8.749999999694769315e+01,8.343984347902733134e-07,1.550596349725025505e+02,2.907999985470765125e+01,3.295199912887118643e+01,4.727999990551669640e+01,3.222000006218040653e+02,7.470000010140720903e+00,2.671700066365758062e+02,3.789999999913501227e+00,3.282999973053399856e+01,1.103692199374419314e+00,2.300000004437756118e+01
1.011578276009602973e+03,2.976650197436521239e+01,2.970000069157200606e+00,1.245999991493133585e+01,8.890999995864711991e+01,8.343984347902733134e-07,1.202626022178873910e+02,1.851000000459969286e+01,2.815199889680368983e+01,3.957000005261357245e+01,3.220999991554352846e+02,6.560000012365141409e+00,1.984700040467714643e+02,3.170000010864695739e+00,3.724999967109113896e+01,6.466695627767882204e-01,2.057000050102965005e+01
1.004503527058347572e+03,3.170500697508727228e+01,2.859999972691487979e+00,1.864000004741371441e+01,9.015000017765483165e+01,8.343984347902733134e-07,1.816322526777809117e+02,1.146999985787220311e+01,2.673599915230475688e+01,3.752000017177072522e+01,3.220500007645347296e+02,1.004999994845796607e+01,4.007499995961630361e+02,4.910000001978641393e+00,3.610999971427492738e+01,3.662832011461611970e-01,2.998999974827075476e+01
1.007664679009948486e+03,2.378397179861880772e+01,2.799999873440150999e+00,1.779999985953188357e+01,9.450999981647977677e+01,8.343984347902733134e-07,1.124393497187129753e+02,5.710000378746233451e+00,2.527200134925102049e+01,3.532000016280566257e+01,3.220600023165418975e+02,1.061000002923649888e+01,2.862500060930592554e+02,4.930000024403019765e+00,3.989000007503535272e+01,1.319043291424019770e+00,2.863000009382616184e+01
1.009732977061148745e+03,2.908075010608867217e+01,2.779999925851443621e+00,9.710000298238337990e+00,9.592000005872533563e+01,8.343984347902733134e-07,1.058603524032534011e+02,3.259999523190515447e+00,2.277599863688809023e+01,3.144999996459654312e+01,3.221100007074424525e+02,6.100000012756115808e+00,2.328200053416736353e+02,3.240000012494844928e+00,4.097999992575656591e+01,2.303765130629937374e+00,1.559000027405865296e+01
1.003419860104813893e+03,2.413185276437641846e+01,2.879999920280195358e+00,9.349999786755111231e+00,9.662999951217165062e+01,8.343984347902733134e-07,1.696993783410837580e+02,4.370000123310585849e+00,2.376000030426681775e+01,3.276000010529261885e+01,3.220600023165418975e+02,6.039999937356505200e+00,3.205999981194727297e+02,3.280000018916013893e+00,3.645000002536262684e+01,1.206598620352773876e+00,1.377999914682315463e+01
1.009553987973611470e+03,2.724731853946779836e+01,2.959999967120239717e+00,8.869999507009088902e+00,9.651999961265440220e+01,3.340000744662233956e+00,1.730530841107363926e+02,4.070000195632786699e+00,2.533199892244452656e+01,3.512000027969308036e+01,3.219999976890665039e+02,4.889999871589171931e+00,3.434999958932446589e+02,2.309999930450942429e+00,3.382000005299570233e+01,1.401348063316300463e+00,1.321999905825553157e+01
1.009632262018707252e+03,2.893258860640451147e+01,1.001000008731765689e+01,2.370999991007555252e+01,9.644000019581666550e+01,2.505000016137701380e+01,9.404715417362868379e+01,8.060000294284673572e+00,3.741599999261592302e+01,4.327999997749340366e+01,3.220500007645347296e+02,1.028000001500724814e+01,8.053200145653913751e+02,4.379999984146429881e+00,2.524999951371954054e+01,1.210361016032481363e+00,3.709000003020936020e+01
1.008351640018160538e+03,3.023527672262678934e+01,1.475999982268335842e+01,3.308000011680059060e+01,9.587000000238253961e+01,7.090000212345830732e+01,6.883084345914325297e+01,1.078999982897758869e+01,4.814399889148188549e+01,5.281000025565668921e+01,3.211500016209187720e+02,1.381000022384903936e+01,1.183169973198383332e+03,5.570000050286548543e+00,2.009000114903666301e+01,3.976258051273697802e-01,5.438999968275111030e+01
1.003909844977327452e+03,3.024051368957120900e+01,7.749999982391178044e+00,2.331000002890652922e+01,9.326999987801819714e+01,1.184699998426410446e+02,1.159865009795835533e+02,1.562999996374774447e+01,3.767999968141865708e+01,4.716999992664722186e+01,3.215499981172584967e+02,1.036999999461712818e+01,7.175300025513913624e+02,4.370000011361828030e+00,2.600000042121402899e+01,1.246110626654501008e+00,4.190999995155122093e+01
1.010708435145544172e+03,2.783589329154401781e+01,1.101999987715691987e+01,1.850000006637902672e+01,8.908999976871660920e+01,1.968699978476751085e+02,1.439567213810290127e+02,2.903000034882369107e+01,4.250399894276355894e+01,4.969999987222070814e+01,3.219999976890665039e+02,9.749999971928520637e+00,3.893000007092770716e+02,4.790000021142722275e+00,2.752999942735196015e+01,1.286094368097399521e+00,3.080000015670159286e+01
1.006196602980034527e+03,2.526696160868677410e+01,1.339999979585825152e+01,2.034000003260184286e+01,8.437999999850404720e+01,2.897500044141298190e+02,6.613195390721706701e+01,3.666999908549313147e+01,4.638000026402148279e+01,5.213999991355109387e+01,3.220500007645347296e+02,1.076000008424598953e+01,2.633499990507987150e+02,5.259999933274209560e+00,3.257999988398949398e+01,2.649388212668185361e+00,3.072999986530653871e+01
1.004518845917076760e+03,3.156527434109086983e+01,1.016000007896078472e+01,2.249999993392725273e+01,8.243000006303800831e+01,2.592200037488300950e+02,1.870294708501697869e+02,2.537999978255677291e+01,4.531199940248401958e+01,5.544999974852409252e+01,3.220800007359886195e+02,1.101000008693545062e+01,2.289999977558965725e+02,4.809999966711924202e+00,3.590000022617861930e+01,1.686190937836287151e+00,3.538000004008590338e+01
1.001763404873606873e+03,2.916654175469237131e+01,9.580000059976981674e+00,2.140999999000624499e+01,8.173000011587720337e+01,2.761399947523088940e+02,1.441540376441798514e+02,2.525000010313379306e+01,4.492799938391861758e+01,5.572000032440452344e+01,3.216600011356345021e+02,1.069000004077629029e+01,1.908300074121945613e+02,4.599999961821477967e+00,3.786999975559424314e+01,2.416059797768080664e+00,3.406999983290093326e+01
1.005391891037418532e+03,2.722145874770489371e+01,7.769999994101189245e+00,2.180999998430290887e+01,8.027000009783498058e+01,3.472099978937425249e+02,9.851864232372795982e+01,2.234999983812371482e+01,4.065600112114441345e+01,5.180000037120503720e+01,3.221700006503501754e+02,1.062999996537667968e+01,1.832000022083527710e+02,4.539999971403518408e+00,4.279999999180030557e+01,2.188076315091291857e+00,3.569000008911440602e+01
1.011393234092773696e+03,3.006007619427529320e+01,8.560000039858152832e+00,2.269999994993019143e+01,7.723000009485549811e+01,4.951399906510725941e+02,1.223895313362711477e+02,2.373000018032887226e+01,4.200000118612331335e+01,5.270999988252483348e+01,3.221599990983430075e+02,1.086999999999605038e+01,2.061000092506132830e+02,4.699999997088194270e+00,4.860000015905397674e+01,1.100069054870629781e+00,3.552000006222780826e+01
1.008986031076103700e+03,2.877813139666085718e+01,8.919999994153135603e+00,1.918000006045427952e+01,7.286000010810661820e+01,5.827400038958187451e+02,1.128036379218500826e+02,1.868000001182334557e+01,4.092000080994714750e+01,5.046000011856941114e+01,3.219999976890665039e+02,8.930000053879973976e+00,1.832000022083527710e+02,3.650000001456652043e+00,5.382999983495167839e+01,1.473231066900339448e+00,3.006999976092327387e+01
1.009044603016869360e+03,2.535347263794572825e+01,5.109999975581006382e+00,1.650999993731715065e+01,6.930999947432130170e+01,4.274100122286371288e+02,2.091265060654453976e+02,8.150000369000480305e+00,3.097199887116285311e+01,4.069999995324787534e+01,3.219999976890665039e+02,6.529999974665336993e+00,1.679300003699340778e+02,2.590000013826713854e+00,6.432999954519527819e+01,2.603262805240326827e+00,2.898000042950502220e+01
1.006826758001286066e+03,2.564824408457034011e+01,3.629999878495832277e+00,2.053000001763726701e+01,6.832000037866605169e+01,2.027000008107009990e+02,1.951064241443468177e+02,4.830000398066417233e+00,2.784000114944615234e+01,3.799000019918818083e+01,3.220399992125275617e+02,6.910000029479340000e+00,1.946499964609944300e+02,2.610000036251092670e+00,6.490999995518066612e+01,1.743184689638046514e+00,3.736999993433111911e+01
1.006148699984087216e+03,3.032828716412058156e+01,2.990000016745907985e+00,2.273000004283274578e+01,7.270999993907821590e+01,3.619000261035024835e+01,1.374343679958947746e+02,4.679999952165177390e+00,2.781600212016874707e+01,3.894999989707390142e+01,3.217699994694427801e+02,8.779999998870483324e+00,2.404499920085382030e+02,3.869999998345493797e+00,5.731000024307259366e+01,8.427893188976447458e-01,3.964000001302219545e+01
1.010663120079634837e+03,2.672894277912226002e+01,3.339999997246538399e+00,2.324999999393827466e+01,7.905000001358283157e+01,9.998754355621031209e-03,1.743792686221607369e+02,1.298999978067712746e+01,3.637200075204368233e+01,5.187999980655939680e+01,3.223399989270661763e+02,1.046999994229709863e+01,2.824299985072821642e+02,4.860000022772871020e+00,4.132999998449106727e+01,2.696148567437431254e+00,4.109999996360653540e+01
1.009100617013071769e+03,2.840638269077993527e+01,2.779999925851443621e+00,1.552999991923748979e+01,8.443999999948570689e+01,8.343984347902733134e-07,1.264865034796226269e+02,1.440000006744382866e+01,2.786400017872355050e+01,3.940999988717817359e+01,3.221299991268891745e+02,7.029999980044258301e+00,2.251800087070967322e+02,3.259999996491635521e+00,4.679000001163966260e+01,1.648067878843843870e+00,2.722999987240710951e+01
1.007592036020436694e+03,3.119583228354332860e+01,2.779999925851443621e+00,1.274000017867441947e+01,8.567999993794728653e+01,8.343984347902733134e-07,1.065191641082073915e+02,1.267999995182253414e+01,2.518799956340445334e+01,3.521999978967381395e+01,3.223099989556123433e+02,5.760000030456774667e+00,1.908300074121945613e+02,2.619999970608105855e+00,4.601000003218737788e+01,2.123209861817816346e+00,2.295000031679383667e+01
1.002619716969401225e+03,2.600642972648412510e+01,9.000000040993180406e+00,2.177000001126969408e+01,8.697000007302473534e+01,8.343984347902733134e-07,1.273116336623969147e+02,3.131999989317669630e+01,4.182000069147931498e+01,5.174999975306355537e+01,3.221800022023574002e+02,1.187000001075389299e+01,8.663800019836414776e+02,6.020000016848834790e+00,2.866999938416817173e+01,8.624240515420632525e-01,3.517000000687304606e+01
1.012446981097319849e+03,2.593685929289515002e+01,1.414000016500735768e+01,2.952999983274841611e+01,8.760000010963331363e+01,8.343984347902733134e-07,9.281540845121921279e+01,5.731999941000076859e+01,5.739600047265541605e+01,6.827000011071567087e+01,3.221100007074424525e+02,1.846000032726882267e+01,1.744220062317368502e+03,9.830000215368619010e+00,1.694000062042614729e+01,5.889214347596429810e-01,4.337999990371712755e+01
1.005922930025786741e+03,3.229926762765727943e+01,5.590000000136057245e+00,2.966000008448929037e+01,8.901000007133272618e+01,8.343984347902733134e-07,1.380543511994983135e+02,3.025999976306526662e+01,3.980399929816705651e+01,5.382000014010833411e+01,3.221599990983430075e+02,1.951000017837711553e+01,1.809099927562554967e+03,1.185000017457557142e+01,2.426999962283512957e+01,1.107624460894147234e+00,4.188999994838809471e+01
1.008074084957027708e+03,2.899837424510570827e+01,6.120000021905483756e+00,3.057999991676384610e+01,8.992000003069640002e+01,8.343984347902733134e-07,1.515266449321853202e+02,3.125999952199126497e+01,4.502400068440388736e+01,6.118999958751427926e+01,3.221100007074424525e+02,1.853000010375945550e+01,1.793830055482977059e+03,1.098999997887905344e+01,1.664000135171713168e+01,2.946076546290929521e+00,4.464999982425173641e+01
1.008455181980050043e+03,2.238102536786841412e+01,7.070000001039275617e+00,1.623999985537843926e+01,8.957000019738906360e+01,8.343984347902733134e-07,1.320140209733984022e+02,3.525999952181994246e+01,4.081199999482318930e+01,5.312999972337636478e+01,3.223200005076195112e+02,8.039999992244574401e+00,2.061000092506132830e+02,3.979999996789914896e+00,2.610999969712034385e+01,2.021225128372443169e+00,2.647999947346566074e+01
1.010713882051714791e+03,2.652155003703084901e+01,3.250000104854747995e+00,1.081000038625450443e+01,9.203999972638827387e+01,8.343984347902733134e-07,5.806284445793096438e+01,1.007000019537580471e+01,2.332800222714661942e+01,3.157000041235476573e+01,3.223699988985200662e+02,5.299999897358212309e+00,2.900699951418590672e+02,2.119999947984874566e+00,5.111999982961885536e+01,1.878498336571400973e+00,1.849000017206420310e+01
1.007126688004635639e+03,2.740868405686019216e+01,2.890000022317156247e+00,8.190000417954964362e+00,9.680000037704793669e+01,8.343984347902733134e-07,1.139738536007351399e+02,4.270000147417986724e+00,2.422800210867877979e+01,3.354000042626768874e+01,3.222100021738112332e+02,4.269999982390100257e+00,2.671700066365758062e+02,1.780000027901495141e+00,4.641000002603426111e+01,8.683549001182037097e-01,1.437000064175596137e+01
1.012299225106019549e+03,2.537899004100807687e+01,3.170000058014703637e+00,1.306999984307081775e+01,9.708999980608852809e+01,6.130003417975956381e+00,1.409571035976960616e+02,5.889999564053169934e+00,2.986800205739711345e+01,4.195000008585262208e+01,3.223800004505272341e+02,6.010000033146234877e+00,3.091500038668311277e+02,2.460000021778605550e+00,3.352999984800300126e+01,2.541345855045388014e+00,2.376000016457647490e+01
1.002774504154362376e+03,2.383274287079771980e+01,5.109999975581006382e+00,1.890999997851556813e+01,9.576999988969691913e+01,5.391000087154482401e+01,1.025170698436639043e+02,8.540000371394087963e+00,3.464400066849938753e+01,4.646999990417762660e+01,3.221100007074424525e+02,8.190000013881681085e+00,8.931000166116791661e+02,3.319999986909595080e+00,2.756999978580015309e+01,1.007292087605335951e+00,3.360000003889149411e+01
1.008576190928055553e+03,2.274697442013069093e+01,5.119999949375360515e+00,1.570000029484844006e+01,8.867000002485703192e+01,2.104500013452572773e+02,1.403874236723985973e+02,1.350999994455604991e+01,3.153599938437225347e+01,4.157999999999145757e+01,3.221100007074424525e+02,6.739999971584902383e+00,1.091570019177250288e+03,2.930000010765269280e+00,3.569999980179862575e+01,1.522015098492762286e+00,2.996000002385016003e+01
1.007645059989390120e+03,2.243948041040656705e+01,2.354000015428043824e+01,2.097000000028651812e+01,7.886000013613555382e+01,4.345599887133557786e+02,1.658696003830007726e+02,7.359000059758758994e+01,5.775600016609949705e+01,5.434999995982933996e+01,3.222199990412507304e+02,1.285000008537155480e+01,4.732700005032558010e+02,6.439999872919376145e+00,2.908999972822176971e+01,1.850489463564965797e+00,3.199000006458368262e+01
1.011134788864007419e+03,2.564914331038941242e+01,3.033999977543554749e+01,2.503999995616035790e+01,7.122000027999490612e+01,5.442599946793502568e+02,1.403976839479638556e+02,1.100300029966973057e+02,6.843599971056674747e+01,6.071999999167238826e+01,3.223500004790734010e+02,1.583000018150490540e+01,2.022800016648362202e+02,8.200000001740463063e+00,2.689000053148573244e+01,1.030453249346379163e+00,3.708000002862779354e+01
1.005099575026260368e+03,2.538810285474816908e+01,1.990999979224928040e+01,1.962000006549337527e+01,6.626000052614861602e+01,6.333000061027441916e+02,1.290118646303583319e+02,7.569999902838429762e+01,5.330400011283738593e+01,5.301000013876926431e+01,3.223999988699739561e+02,1.101000008693545062e+01,1.373999881238317471e+02,5.450000069450629425e+00,4.356999996713184942e+01,1.650349483221959845e+00,3.064000013139655465e+01
1.010445524011061934e+03,2.742595937416600549e+01,7.999999968463057165e+00,1.265000005080361234e+01,6.242999912796977213e+01,6.213800046403366650e+02,1.790853617590602767e+02,2.314000022615006458e+01,3.616800122812228580e+01,4.441999999636131236e+01,3.224700003648888469e+02,6.229999998135890671e+00,1.602999951660922306e+02,2.800000018717160977e+00,6.013000020824222247e+01,1.548354759415629500e+00,2.107000001945968393e+01
1.001775202110166902e+03,2.421857286010916610e+01,5.059999978366630735e+00,9.969999595025255346e+00,6.207000006892309329e+01,4.341000099691219702e+02,1.300853219306930839e+02,1.501000006500738948e+01,2.979599978618925604e+01,3.895999993438708486e+01,3.224400003934349570e+02,4.959999915058871167e+00,2.022800016648362202e+02,2.150000058476618126e+00,7.816000002920527834e+01,1.399664573630650999e+00,1.694000076789397724e+01
1.008910922028443565e+03,2.561346507906879566e+01,3.129999906352074479e+00,1.150999983891737344e+01,7.678000014886255542e+01,6.560000055746816372e+01,1.120952412548644048e+02,8.750000224356080381e+00,2.900400071978105387e+01,4.064999998246972979e+01,3.226200002221581826e+02,6.039999937356505200e+00,2.557199938469569247e+02,2.580000002614524668e+00,7.330000093323141641e+01,8.807552648596937983e-01,2.023999960786571961e+01
1.008668253960730226e+03,2.572841310140423587e+01,3.100000113211620612e+00,7.190000337940267272e+00,9.365999998083668743e+01,6.052000284800492125e+01,1.351302872132406492e+02,7.670000291891064137e+00,2.637599816301676015e+01,3.657000007962263055e+01,3.229499999081506871e+02,4.670000040089051119e+00,2.747999933034403739e+02,2.209999972039401683e+00,5.438000031806617329e+01,1.546758445283049621e+00,1.236000060418556856e+01
1.010114880914679361e+03,2.728754967939475407e+01,4.450000037999767954e+00,1.421999993508771887e+01,8.877000013754263819e+01,1.159999988319769386e+02,2.000093375568429224e+02,8.309999751953833780e+00,3.194400102390288509e+01,4.323000000671525811e+01,3.227899984988741835e+02,6.289999940045965410e+00,3.854799977577442860e+02,2.600000025038903484e+00,4.533000000845116517e+01,1.189467992969948984e+00,2.722000015114964455e+01
1.004345257039335138e+03,2.652400483881746496e+01,1.252000005007340988e+01,4.352999914291191885e+01,8.681000011716467668e+01,1.276600001063910241e+02,9.926981231370318426e+01,1.028000004833779712e+01,5.230800022666386440e+01,6.273999976057568517e+01,3.226600017456192404e+02,1.552000010341583369e+01,6.564699965961639236e+02,5.789999989534009295e+00,3.050000039473706792e+01,2.324519734221527578e+00,7.492999900674752212e+01
1.010158925010710050e+03,2.863088803900609136e+01,7.479999984609287722e+00,4.417000112483306395e+01,8.449000000322611470e+01,6.804000160607709802e+01,8.726008117091197391e+01,1.164000010612702773e+01,4.821600116268975000e+01,6.408999918737337964e+01,3.228300000223352413e+02,1.692999987296364850e+01,7.251699991859682086e+02,6.370000024999578514e+00,3.197999997871048805e+01,9.729751482113182526e-01,8.066000075395635349e+01
1.003887229998327257e+03,2.537658443548487242e+01,4.959999983937879442e+00,4.299000078907675970e+01,8.574000006166787102e+01,1.814999648432247170e+01,1.662819033998517000e+02,1.781999999920604338e+01,4.515600052880525084e+01,6.317999967605358336e+01,3.225300003077965698e+02,1.742000044423062022e+01,8.969200056604789779e+02,6.789999881070119869e+00,2.955999949443987873e+01,8.795284208106580737e-01,7.904999853705575674e+01
1.006406468021272872e+03,2.839537056247426960e+01,4.200000051927888833e+00,5.000000002261546683e+01,8.739999988426208688e+01,3.199962948644383687e-01,1.371706555117890218e+02,3.045999971485046487e+01,4.746000064019764864e+01,6.795000064299598819e+01,3.225600002792504597e+02,1.884000018184852365e+01,1.270949975244671123e+03,7.389999938960068349e+00,2.229999940948901838e+01,2.076145380262485851e+00,8.756999876325244259e+01
1.005505725030948042e+03,2.872054367648257767e+01,4.120000005087844031e+00,4.794999925523791262e+01,8.987999976118523193e+01,8.343984347902733134e-07,1.098970014252867315e+02,2.604000000909780255e+01,4.533600102344924920e+01,6.475999952947897498e+01,3.225700018312576276e+02,1.920000010028804383e+01,1.492319966315525562e+03,7.879999950371111339e+00,1.799000079662965490e+01,3.057074149717095235e+00,8.219000071561164589e+01
1.002686277002927568e+03,2.709168710420378900e+01,5.939999980636687660e+00,5.032000101357603228e+01,9.010000012131203562e+01,8.343984347902733134e-07,1.221511860400812139e+02,2.924000020178568349e+01,4.447199968583318253e+01,6.059000080132766186e+01,3.227400001079736285e+02,2.002999958593807861e+01,1.862530020998826785e+03,8.760000014781654798e+00,1.747999930410237823e+01,6.592675960674837521e-01,8.852000143641797081e+01
1.001831081101124482e+03,2.545951098405342350e+01,1.169000004501772771e+01,5.476999955959918509e+01,9.113999983440238850e+01,8.343984347902733134e-07,8.052910591234180515e+01,2.470000023572449521e+01,4.938000073302464443e+01,5.945999960596667933e+01,3.225700018312576276e+02,2.152000016796289117e+01,1.286219995620067039e+03,8.609999923453990789e+00,1.578999886417167176e+01,2.174905949962373519e+00,9.788000067416967909e+01
1.004017196930329646e+03,2.584847824096346969e+01,4.209999897479635322e+00,2.063999998118782742e+01,8.486999998606441409e+01,8.343984347902733134e-07,9.702484505409834981e+01,1.462000006261378360e+01,3.313199962351518479e+01,4.546000001972598170e+01,3.223300020596267359e+02,8.840000007525325998e+00,5.267000012546413927e+02,3.510000007803251165e+00,2.777000021018014664e+01,1.756042709943620661e+00,3.456999991197916700e+01
1.009442734990394911e+03,3.169470865138979221e+01,2.640000036245277570e+00,1.718000005126173946e+01,8.619000000766081371e+01,8.343984347902733134e-07,8.241020336850770889e+01,9.530000229143295698e+00,2.613599750349142425e+01,3.692000009085742107e+01,3.221800022023574002e+02,7.270000014663628995e+00,3.129700021841196076e+02,2.779999996292782605e+00,3.085000045347156927e+01,1.439831755526921997e+00,2.745000046784972980e+01
1.011933813922510581e+03,2.201653709877344767e+01,2.829999923065819711e+00,1.900999998651703748e+01,8.979999978325520260e+01,8.343984347902733134e-07,1.175761071822945496e+02,1.228999994942892826e+01,2.390399966330689097e+01,3.313000019115378336e+01,3.223800004505272341e+02,7.789999999983984402e+00,2.366300029597383627e+02,2.629999981820295041e+00,2.916000001354086280e+01,1.291198204890283252e+00,3.080999987795905781e+01
1.007379628003835819e+03,2.387926291394822798e+01,3.079999909137698388e+00,2.485000012196179142e+01,8.814999988776571627e+01,8.343984347902733134e-07,1.022017504975084421e+02,1.801999999618458759e+01,2.539200167901368133e+01,3.501000030082360581e+01,3.225400018598037377e+02,1.187000001075389299e+01,2.519000047981570845e+02,4.990000014820979324e+00,2.866999938416817173e+01,1.811129837496271655e+00,4.013999995193837833e+01
1.008700899998888644e+03,2.726590856868247670e+01,2.759999978262736242e+00,2.481999987822238296e+01,8.939000010677342800e+01,8.343984347902733134e-07,1.224846942786097514e+02,1.180999987231951209e+01,2.386800111939078306e+01,3.317000034040652423e+01,3.218400009643576709e+02,1.115999987496586954e+01,2.786200008892174083e+02,4.400000006570808253e+00,2.660999939020935301e+01,9.486838974334029784e-01,3.774999999443057419e+01
1.005210126998979376e+03,2.382511709705418923e+01,3.240000002817787106e+00,5.356999946358153863e+01,9.097000009171068768e+01,8.343984347902733134e-07,1.071569500788787792e+02,1.110000013989451872e+01,2.687999851134482299e+01,3.716000012322274415e+01,3.219999976890665039e+02,3.372999962652890105e+01,5.648699962325877095e+02,1.623999979371951596e+01,2.150999951140730815e+01,2.996731339806011363e+00,7.480000038780767113e+01
1.009057218004864012e+03,2.599691600201779096e+01,4.230000101553557101e+00,3.718000044486085187e+01,9.089000011378065835e+01,7.779995128826271866e+00,1.147475183217354413e+02,1.438000002405907551e+01,2.949600155347041408e+01,3.974999986109978067e+01,3.224299988414277891e+02,2.186000015026223409e+01,5.419699984588157804e+02,1.143000016479467718e+01,2.148999864825272610e+01,1.439459745772827315e+00,5.646000029045909230e+01
1.005948002966386412e+03,2.862923371759734437e+01,3.579999881281456631e+00,2.556999993823340489e+01,8.668999986972349348e+01,6.697000089204843221e+01,1.126963413882646279e+02,1.984999995874637690e+01,2.452800034139762175e+01,3.291000023341483427e+01,3.223399989270661763e+02,9.999999974617981735e+00,3.473200034790217501e+02,3.970000004791519821e+00,3.228000061528047837e+01,2.252965858079090111e+00,4.239000002746632134e+01
1.006126371020382635e+03,2.896124271240246273e+01,3.700000079784130147e+00,1.874000005541518377e+01,7.671999974459581040e+01,2.077000027561395257e+02,7.315074677793626279e+01,2.290000018759535649e+01,2.412000129355482159e+01,3.210999983781339040e+01,3.224500019454421817e+02,6.539999942735426508e+00,2.633499990507987150e+02,2.610000036251092670e+00,4.485000000301121048e+01,1.058737951367228591e+00,3.183000003927865151e+01
1.003434340876590454e+03,2.855790675859758210e+01,3.190000005603411015e+00,1.377999977921176722e+01,7.319999959349001983e+01,3.421499960241936833e+02,1.367009790771239182e+02,1.559000011800940655e+01,2.180400166752371405e+01,2.926999959868228984e+01,3.220200007930808397e+02,5.439999984297613445e+00,1.755699970045109808e+02,2.419999976929848806e+00,5.273999998423046520e+01,7.416233395932700923e-01,2.549000015786305795e+01
1.008847620949978136e+03,2.900350576123586777e+01,3.400000096497875379e+00,1.456000008296220116e+01,7.054000018704353181e+01,4.790299924208995890e+02,9.366657596905636751e+01,1.223999996148262781e+01,2.189999778463332802e+01,2.911999947056007443e+01,3.224899987843355120e+02,5.619999943517373531e+00,1.450299933276735374e+02,2.439999999354227178e+00,5.373000030669216187e+01,1.357503963229066191e+00,2.685000037295585074e+01
1.004420444981273590e+03,2.803096607525114337e+01,3.350000099283499733e+00,1.522000001510241773e+01,6.770999991572075771e+01,5.277099887361233641e+02,1.573318395926781648e+02,9.020000448503504131e+00,2.196000054120248990e+01,2.928000006757103790e+01,3.225000003363427368e+02,6.910000029479340000e+00,1.106800105697486174e+02,2.940000021977458466e+00,5.379999990808077825e+01,6.939950808794664860e-01,2.637000029704074677e+01
1.007989574027372328e+03,2.565535488566269606e+01,3.170000058014703637e+00,1.617999997124704237e+01,6.713999972228663182e+01,5.174700099575393324e+02,1.951571056814116218e+02,1.192000023145124388e+01,2.111999823286382849e+01,2.825000010849301901e+01,3.224800019168960148e+02,8.690000019260603281e+00,1.068699944147066390e+02,3.819999999925929757e+00,5.617000028625638919e+01,8.498839999696680136e-01,2.654999976486071489e+01
1.012636685119956041e+03,3.221589683047764652e+01,2.840000025102780601e+00,1.134000006665384319e+01,6.506999896075296874e+01,6.370699909973702688e+02,9.723238969558474309e+01,5.359999981059793583e+00,1.962000188589398419e+01,2.638999921029844486e+01,3.224100004219811240e+02,5.720000024686878959e+00,9.160001111326516821e+01,3.039999980388999212e+00,5.843999976831151599e+01,1.364250001496309928e+00,2.021000044409332119e+01
1.010703547842703983e+03,2.679207838380641959e+01,2.759999978262736242e+00,1.094999991477862622e+01,6.314999949043231453e+01,6.382100019598335621e+02,1.484681799209750181e+02,2.990000263167770456e+00,1.955999912932482232e+01,2.643999982843993379e+01,3.222300005932579552e+02,5.260000025077852470e+00,9.923001631710701531e+01,2.689999972238255044e+00,6.140999936783565261e+01,2.566597051785163508e+00,1.857999990597418360e+01
1.003696518049504220e+03,2.995980813931051756e+01,3.109999958763367101e+00,1.216999977105759001e+01,6.754000017302905690e+01,4.966200053182835177e+02,1.828470371201185287e+02,5.520000328137825818e+00,2.103600163039291715e+01,2.820999995924027814e+01,3.220500007645347296e+02,5.279999961218033278e+00,1.412200142465860608e+02,2.569999991402335482e+00,5.675999975995810587e+01,6.161882091003324513e-01,2.343000039270894064e+01
1.012266556096257318e+03,2.220176632424245611e+01,3.329999895209577510e+00,1.279000018267515415e+01,6.949000012602922993e+01,4.356999996758191287e+02,1.605508965232025389e+02,1.014999988685248056e+01,2.241599764760009350e+01,3.002000023929336692e+01,3.221599990983430075e+02,5.330000068547553482e+00,2.022800016648362202e+02,2.610000036251092670e+00,5.877999939546872810e+01,1.212316314825162777e+00,2.329999953117630440e+01
1.006906377000241037e+03,2.261893934473265233e+01,4.139999952676551409e+00,3.528000029283292349e+01,7.033999996167231927e+01,2.684299983019485580e+02,8.455417078009456588e+01,2.482999991514747151e+01,2.896800217586494597e+01,3.905999987594337597e+01,3.216900011070883352e+02,1.457999990107852994e+01,3.358699999578914799e+02,6.390000047423956886e+00,6.220999969749465208e+01,9.999474593856397808e-01,6.030000089777991690e+01
1.012810501077649292e+03,2.817314977014182631e+01,3.129999906352074479e+00,2.505000013796473013e+01,7.401000028180652635e+01,9.025000245777243890e+01,1.066351412860800991e+02,1.719999999501455434e+01,2.515200101948835254e+01,3.464000021496244131e+01,3.208599987738195978e+02,1.212999998151344272e+01,3.205999981194727297e+02,6.789999881070119869e+00,6.616999961948047826e+01,1.787436721213322421e+00,4.092999993671993764e+01
1.008484478024045984e+03,3.158270605240049633e+01,2.909999969905863626e+00,2.089000000119149902e+01,7.926000002578570047e+01,5.638000188220891573e+01,1.831104496158074255e+02,1.702000002635631404e+01,2.538000216437498580e+01,3.530999969391691451e+01,3.213099983456276050e+02,1.053000001769670924e+01,3.893000007092770716e+02,6.009999928781469158e+00,5.779999950458431357e+01,1.556101919229306851e+00,3.652999994164174069e+01
1.003472927898691637e+03,3.033902536029094321e+01,2.890000022317156247e+00,2.985000022036156864e+01,8.224999997242237271e+01,8.343984347902733134e-07,1.092091914027905375e+02,2.422000015861507904e+01,2.945999782617865748e+01,4.174999998695226111e+01,3.222100021738112332e+02,1.453000006072808148e+01,5.190700006850438513e+02,7.919999995219868083e+00,4.420000001301003323e+01,6.420907496510135370e-01,5.102000055138432089e+01
1.010854520988277955e+03,2.547095966743687612e+01,2.859999972691487979e+00,1.870999996251262942e+01,7.995999997294650541e+01,8.343984347902733134e-07,1.856781731612576891e+02,1.973999996116139855e+01,2.568000039709382065e+01,3.580999983327392755e+01,3.221899990697968974e+02,9.299999940389584552e+00,3.129700021841196076e+02,4.679999974663815898e+00,5.048999999746894218e+01,1.202308290038542449e+00,3.024999978939143830e+01
1.006584081990010873e+03,3.014821331179325981e+01,2.820000077514073222e+00,9.310000266232458799e+00,7.818999983001582166e+01,8.343984347902733134e-07,1.356002795310570264e+02,1.396000007710392055e+01,2.236799958904529007e+01,3.068000011251021775e+01,3.222400021452651231e+02,4.260000014320009853e+00,2.061000092506132830e+02,2.130000036052239754e+00,5.566999990923689268e+01,1.687265530368536215e+00,1.618999924765613585e+01
1.002763416024848766e+03,2.929516196211867296e+01,2.829999923065819711e+00,1.185999986692251795e+01,8.335000001964293403e+01,8.343984347902733134e-07,1.454048349209774358e+02,1.528000004812364487e+01,2.405999853698565971e+01,3.337000022351910644e+01,3.223600020310805689e+02,4.980000118178121937e+00,2.709800042546405621e+02,2.340000040942686432e+00,5.012000010147558982e+01,2.049235644986330040e+00,2.139999979132721819e+01
1.006757245998997632e+03,2.834754798296071954e+01,2.859999972691487979e+00,1.637000010711931708e+01,8.796000001031842430e+01,8.343984347902733134e-07,1.850260259657816277e+02,2.013000008407059127e+01,2.632800010446195671e+01,3.687999994160468020e+01,3.221899990697968974e+02,7.800000000383571219e+00,3.816700001396795869e+02,4.029999995209479380e+00,3.932000009662724693e+01,1.632654761840671043e+00,2.941999993844567030e+01
1.006552716995344213e+03,2.744129797680570348e+01,2.959999967120239717e+00,2.347999995200691359e+01,9.002000014338200629e+01,8.343984347902733134e-07,1.023842486295908145e+02,2.443999991275386208e+01,2.800799953776362372e+01,3.936000013218780680e+01,3.221599990983430075e+02,1.160000007192425286e+01,4.694499998688451683e+02,5.780000055176995666e+00,3.082999959031698722e+01,1.740395309569815696e+00,3.816999999077526695e+01
1.006149289008016581e+03,2.386248734103844882e+01,3.200000107640372349e+00,3.409000007694594814e+01,9.058999977572383955e+01,8.343984347902733134e-07,1.197074973150425450e+02,3.225000034386515324e+01,3.039600143500258156e+01,4.274000001256531789e+01,3.217899978888894452e+02,1.715000023842191013e+01,5.572299995980107497e+02,8.539999921823842044e+00,2.591000064060132502e+01,1.256740133082902888e+00,5.345000009473223201e+01
1.012718610896878090e+03,2.566336773588909992e+01,3.090000011174659722e+00,3.284000058027499591e+01,9.373000017193507460e+01,6.000075850874964090e-02,1.626983582619389210e+02,2.487000000191697779e+01,2.694000126791398486e+01,3.737000004364850980e+01,3.217099995265350572e+02,1.575999987105613442e+01,4.007499995961630361e+02,7.620000119985245846e+00,3.723999992344432997e+01,2.226899986513196872e+00,5.405000018962611108e+01
1.005876911972315497e+03,2.701350709512303183e+01,2.890000022317156247e+00,1.355000012281684008e+01,9.959000037885954271e+01,8.343984347902733134e-07,1.726011365730344096e+02,5.589999636375370784e+00,2.080800048550628389e+01,2.814000012962354447e+01,3.220500007645347296e+02,4.900000106638332298e+00,1.183199886673482979e+02,2.040000011997712193e+00,5.330000021499176199e+01,8.611535231793081557e-01,2.440000026579661352e+01
1.006444397999019657e+03,2.810268279288300164e+01,2.840000025102780601e+00,1.642000011112005353e+01,9.999999949424903889e+01,8.343984347902733134e-07,1.362144589654614322e+02,1.178000016878913669e+01,2.499600214580958379e+01,3.484000009807502352e+01,3.221100007074424525e+02,7.890000003979851684e+00,3.015200079314779487e+02,3.429999994960912790e+00,3.964999997613765004e+01,6.647100357979415231e-01,2.711999957468579936e+01
1.011772186095224470e+03,2.343103766372155405e+01,2.909999969905863626e+00,1.320999997494235956e+01,9.614999964459148885e+01,9.280005635951596332e+00,1.185623166510642790e+02,1.329000019041726688e+01,2.403599950770825444e+01,3.322000009539689103e+01,3.220600023165418975e+02,6.489999968895441285e+00,2.366300029597383627e+02,2.979999989971039653e+00,3.931000000701519781e+01,9.387519142445537312e-01,2.273999944260868133e+01
1.007073882995548615e+03,2.933896258828666959e+01,2.970000069157200606e+00,1.139000007065457787e+01,8.934000005043063197e+01,2.844999999575115623e+01,2.038303429146610597e+02,1.329000019041726688e+01,2.347200158618668553e+01,3.225000036019798699e+01,3.219999976890665039e+02,4.719999880439500473e+00,2.175500035032549420e+02,1.780000027901495141e+00,3.998999994526010937e+01,1.649652880798630372e+00,2.135000006374349368e+01
1.010699133152366812e+03,2.705588657040765810e+01,3.459999939263997515e+00,1.164000009065825125e+01,8.714999988309422463e+01,5.390000295158763777e+01,8.819477230322058858e+01,1.215999978794361169e+01,2.468399921507639050e+01,3.339000029814547332e+01,3.220500007645347296e+02,4.180000002780219326e+00,3.091500038668311277e+02,1.620000002216818835e+00,3.739000024172932513e+01,1.720867708447256561e+00,2.155000009537478434e+01
1.001434117101844549e+03,2.569238830817061370e+01,4.740000047491668589e+00,1.860000007438049607e+01,8.653999998124122328e+01,1.020599988908246303e+02,1.516216963779010598e+02,1.372999993972600485e+01,2.836800052705162045e+01,3.718999980358673696e+01,3.216999979745278324e+02,6.739999971584902383e+00,3.511300010970865060e+02,2.919999999553080094e+00,3.471999991091421123e+01,1.684438703773903034e+00,3.467999992937637899e+01
1.000309752751335623e+03,2.572155159902404264e+01,5.030000056983569223e+00,1.978999998859375964e+01,8.905999984712937589e+01,1.156999992114253217e+02,1.886576709766875410e+02,1.365000000721815887e+01,2.933999749641599664e+01,3.829000002385704704e+01,3.220800007359886195e+02,7.369999995715982521e+00,3.893000007092770716e+02,3.289999991700615301e+00,3.403999997266930677e+01,1.531049167049183479e+00,3.550000005906467493e+01
1.009920244022579027e+03,2.469046539509602667e+01,3.959999911407755757e+00,1.437999982722058689e+01,9.439000013013088619e+01,1.724899987069590850e+02,1.254558068583304760e+02,1.710000001912195344e+01,2.753999773335166168e+01,3.707999982471726241e+01,3.222499990127046203e+02,6.039999937356505200e+00,2.633499990507987150e+02,2.480000044202983922e+00,3.609000021898131649e+01,1.740234948929516579e+00,2.670000006890828104e+01
1.009428871062666190e+03,2.920070513636393628e+01,3.509999936478373606e+00,7.410000114204533972e+00,9.660000015167670995e+01,1.685199995935368804e+02,1.706155840229914986e+02,1.155999993258801162e+01,2.326799947057745754e+01,3.109000034762412312e+01,3.221400006788963424e+02,4.289999918530279288e+00,1.832000022083527710e+02,2.110000013627860938e+00,4.066999988350501383e+01,1.386824979550786763e+00,1.415999976757080958e+01
1.009386253088985313e+03,2.521213551404986219e+01,3.059999961548991010e+00,5.329999706434994877e+00,9.687000000705401703e+01,1.786200012905366066e+02,1.475509144464252245e+02,8.029999626629617637e+00,2.176799794023195744e+01,2.941999972680450526e+01,3.221400006788963424e+02,3.480000102041358012e+00,1.641200027518693219e+02,1.769999939834129954e+00,4.227000002987514904e+01,1.698670641291701422e+00,9.080000085432363477e+00
1.008828617973227210e+03,2.878928222031459683e+01,2.940000019531532338e+00,6.149999530708079476e+00,9.498999968405993855e+01,1.241700003858513952e+02,1.259507300221727633e+02,8.009999824276032854e+00,2.157600052263708790e+01,2.930999974793503071e+01,3.222199990412507304e+02,3.549999878531987285e+00,1.641200027518693219e+02,1.730000048695724768e+00,4.358999997537332405e+01,2.134408412869536864e+00,1.128999903333765431e+01
1.012865553844039709e+03,2.948454357808501314e+01,3.020000066371576253e+00,8.220000058346954575e+00,9.263999984140961885e+01,1.526400000387561988e+02,1.391110895022100920e+02,8.850000200248681281e+00,2.131200083383435384e+01,2.877000032247639894e+01,3.222100021738112332e+02,3.599999985861507490e+00,1.602999951660922306e+02,1.599999979792440463e+00,4.666999996219081481e+01,1.751446391408359338e+00,1.576999974187861753e+01
1.005084111935986471e+03,3.327023783284821690e+01,3.639999980532793611e+00,1.356000000294750407e+01,9.174999973625538985e+01,1.530699997533045007e+02,1.803904377758221358e+02,1.366999980957174188e+01,2.468399921507639050e+01,3.311000011652741648e+01,3.221700006503501754e+02,5.880000047766460014e+00,2.404499920085382030e+02,2.329999952875321245e+00,4.618000001674860755e+01,8.788517694054936991e-01,2.457999973361657808e+01
1.004397887996158147e+03,2.910169980902107767e+01,3.559999933692749252e+00,1.487999986722793544e+01,9.121000002550077568e+01,8.534000039849939867e+01,1.910816995137112428e+02,1.621000001674975977e+01,2.707200111231534834e+01,3.696999984584778787e+01,3.222700021167189561e+02,6.919999997549430404e+00,2.786200008892174083e+02,2.849999997922931350e+00,4.414999999240635020e+01,1.557601561272689450e+00,2.478999948650533725e+01
1.001546279158035077e+03,2.605594135418059665e+01,3.209999953192118394e+00,1.179000010266045706e+01,9.239999990761954507e+01,4.565000098205078416e+01,9.069231044875303382e+01,1.547000009873205251e+01,2.661599882254208893e+01,3.677999956847283158e+01,3.222400021452651231e+02,5.989999963516519976e+00,3.015200079314779487e+02,3.000000012395418025e+00,4.338999997844988599e+01,9.124157781665831468e-01,2.014999987395573555e+01
9.980778776757848618e+02,2.914098567221488523e+01,3.190000005603411015e+00,1.761000002533331710e+01,9.460000014233374088e+01,1.560000591181726293e+01,1.163624331083866679e+02,2.968999961124004017e+01,2.966399994178788546e+01,4.160999989614323624e+01,3.223800004505272341e+02,7.509999999224423739e+00,4.121999984830489439e+02,3.160000038080094775e+00,3.436999985217970988e+01,2.539273404666141154e+00,2.992000001752390403e+01
1.008941556921524352e+03,2.864577650818755217e+01,3.200000107640372349e+00,2.498000007202896100e+01,9.440999970379417050e+01,8.343984347902733134e-07,2.119705573236411738e+02,4.910999955738141409e+01,3.123600115165341862e+01,4.404999999816392631e+01,3.222199990412507304e+02,9.259999934619688844e+00,4.236499996870570612e+02,3.240000012494844928e+00,2.972999999194896859e+01,1.705445145651860672e+00,4.315999986892270357e+01
1.007324898016721590e+03,2.629723843879474998e+01,3.090000011174659722e+00,2.350999989407261381e+01,9.321000003484375895e+01,8.343984347902733134e-07,1.495652997932506310e+02,5.058000045636472208e+01,2.989200108667451872e+01,4.212000007281343272e+01,3.218700009358115608e+02,8.710000022145550247e+00,4.847199993901417088e+02,3.119999993231337587e+00,2.917000044511815560e+01,8.496415381667756783e-01,4.113999996993279495e+01
1.008939506046869724e+03,2.262580734073728550e+01,2.959999967120239717e+00,1.279000018267515415e+01,9.625999954410873727e+01,8.343984347902733134e-07,1.827945486480935244e+02,2.541999986932627920e+01,2.462400164188288443e+01,3.405999977709994653e+01,3.221100007074424525e+02,5.490000091627133649e+00,2.938799927599237662e+02,2.259999951245172056e+00,3.690000029628712497e+01,2.574056970156479718e+00,2.078999997517587417e+01
1.009567843993083216e+03,3.205565704817093575e+01,3.129999906352074479e+00,6.870000553674532995e+00,9.856999967834018150e+01,8.343984347902733134e-07,7.836078396008252867e+01,1.224999986265941843e+01,2.521199859268185861e+01,3.471999965031680091e+01,3.220500007645347296e+02,3.949999936230938591e+00,2.022800016648362202e+02,1.820000072750252329e+00,4.208000003707244474e+01,1.078962640074352830e+00,1.186000108575553114e+01
1.006779883996674471e+03,2.733556500970954772e+01,2.799999873440150999e+00,8.280000545825771496e+00,9.876999990371139404e+01,8.343984347902733134e-07,1.682917484202821754e+02,1.406999995417331206e+01,2.498399744779522536e+01,3.486999977843901632e+01,3.220500007645347296e+02,4.410000069329500505e+00,2.519000047981570845e+02,1.809999984682887142e+00,3.807000017997423669e+01,2.186507442272282553e+00,1.399999974226577493e+01
1.001254366185547383e+03,3.122541469550457904e+01,2.870000074728448869e+00,7.319999986333726838e+00,9.929000004080272390e+01,8.343984347902733134e-07,1.006943874222805562e+02,1.248000000003733589e+01,2.284800090809595474e+01,3.140999981534380225e+01,3.217200010785422251e+02,4.650000103948871200e+00,2.557199938469569247e+02,2.329999952875321245e+00,3.726000010266842821e+01,1.869256034832333935e+00,1.107000068048782637e+01
1.006985002000720669e+03,2.860239359146989457e+01,2.890000022317156247e+00,9.149999770752170747e+00,9.820999949710891030e+01,8.343984347902733134e-07,7.995205456598841920e+01,1.243000001209103544e+01,2.452800034139762175e+01,3.400000041637196091e+01,3.221599990983430075e+02,5.930000021606444349e+00,3.053299962810540364e+02,3.200000006073675962e+00,3.460999995107741256e+01,1.387210771844477275e+00,1.361999912151811998e+01
1.003845419984905561e+03,2.772745763340085290e+01,3.459999939263997515e+00,1.645999993331641775e+01,9.813000008027117360e+01,8.343984347902733134e-07,1.029985674347737898e+02,2.431000023333088933e+01,3.148799873412962569e+01,4.404999999816392631e+01,3.222700021167189561e+02,1.036000002654703778e+01,3.893000007092770716e+02,5.270000021341575192e+00,2.499999966717503597e+01,1.894126825558260396e+00,2.532000041130056189e+01
1.012348182865747162e+03,2.175864760380842711e+01,3.920000016230341000e+00,2.255999996889550374e+01,9.791000028123667676e+01,8.343984347902733134e-07,1.468174770172841477e+02,3.685999913610154266e+01,3.271200106103368199e+01,4.526999995813881128e+01,3.222600005647117882e+02,1.375999984954044919e+01,3.778499971881468014e+02,7.170000153422959599e+00,2.277999960728441664e+01,1.903401088531390339e+00,3.362000004205462034e+01
1.006712271988440534e+03,2.432803052298131519e+01,3.550000088141002763e+00,2.601999997424001876e+01,9.656999966899719823e+01,8.343984347902733134e-07,7.386328606171367994e+01,3.308999975571312291e+01,3.031199964915602152e+01,4.207999992356069185e+01,3.217800010214499480e+02,1.509999984259763295e+01,3.740299988708583783e+02,7.529999942220365838e+00,2.407999963003242883e+01,2.261427228451049487e+00,3.923999998480012152e+01
1.007949411002621559e+03,2.562482934533453616e+01,3.259999950406494484e+00,2.471999987022091361e+01,9.590000048506205133e+01,3.119996888135318613e+00,9.405040481743753844e+01,3.198000011971772949e+01,2.905199877833585731e+01,4.055000004091344579e+01,3.213999982599891609e+02,1.381000022384903936e+01,4.121999984830489439e+02,6.799999969137485500e+00,2.411999998848062177e+01,6.292980973960231594e-01,3.707000002704622688e+01
1.012495038822081483e+03,2.582138655747187528e+01,3.300000102069123642e+00,2.111999999696935149e+01,9.581999994603972937e+01,1.442000326952515366e+01,1.508088871466780176e+02,2.808000009578164935e+01,2.650799800741812362e+01,3.648999978111714881e+01,3.221700006503501754e+02,1.338999996303083684e+01,5.534200019799460506e+02,7.459999940590217093e+00,2.613000056027492590e+01,2.226194146223888559e+00,3.181999975737298669e+01
1.006436421015477322e+03,2.795376309196269915e+01,3.900000068641633622e+00,2.168999998978483035e+01,9.596000032823650372e+01,4.454000238600977468e+01,6.690276569401173390e+01,2.422000015861507904e+01,2.631600058982325407e+01,3.525000033318892889e+01,3.217200010785422251e+02,1.366000016883954871e+01,5.152499977335111225e+02,8.110000131396287060e+00,2.689000053148573244e+01,3.147044508739663016e+00,3.281999991552945062e+01
1.006997116997402827e+03,2.826606203085741598e+01,4.500000035214142713e+00,1.922000003348749786e+01,9.776000011220826025e+01,9.616000118482301673e+01,8.515302488874144160e+01,1.787000000221679130e+01,2.644800043422461755e+01,3.455000031071934075e+01,3.220500007645347296e+02,1.184000010654362356e+01,4.389200003669147350e+02,7.109999932439473369e+00,2.948000014540446401e+01,2.411336426396543331e+00,2.750000019543345431e+01
1.003533180908950158e+03,2.583863122416450508e+01,5.509999953296013331e+00,1.753000007926688397e+01,9.661999972534000847e+01,1.765500008076385825e+02,1.471327296953558346e+02,1.666000002878204356e+01,2.863200021585435451e+01,3.641999995150041514e+01,3.220800007359886195e+02,9.360000015789195160e+00,4.236499996870570612e+02,4.840000000348492648e+00,3.355999977487390140e+01,2.315771940497964199e+00,2.754999992301717882e+01
1.006755159996147654e+03,2.765057410820166695e+01,5.620000049761725514e+00,2.089000000119149902e+01,9.107999999122793611e+01,3.536599959377860500e+02,1.530564130813600912e+02,2.314000022615006458e+01,2.886000136074098066e+01,3.659999975998662336e+01,3.218299994123505030e+02,1.064999990151685871e+01,3.816700001396795869e+02,4.980000003608790138e+00,4.411999998004413470e+01,7.397032892495553069e-01,3.253999987124564086e+01
1.007096517003792428e+03,2.729700204969757138e+01,3.700000079784130147e+00,2.092999999779297582e+01,8.544000000415719853e+01,3.404099982249942968e+02,8.515873075715271057e+01,1.732000001429190661e+01,2.524800231997361522e+01,3.390000004324011229e+01,3.216300011641806122e+02,1.053999998576679786e+01,3.320500016406029999e+02,4.650000017882423897e+00,6.422000026928895977e+01,1.085323678147882553e+00,3.344999973484392797e+01
1.012625551047234921e+03,2.952525690932944258e+01,3.090000011174659722e+00,1.923999994458567642e+01,8.970000023166188896e+01,1.550199996127089150e+02,1.866989075018245217e+02,1.320000011570146015e+01,2.373600127498941958e+01,3.247000031793693609e+01,3.219999976890665039e+02,1.017000009925718729e+01,3.053299962810540364e+02,4.559999993827896780e+00,7.020000119464638999e+01,2.842402382410080364e+00,3.165999973206795204e+01
1.010150530960755532e+03,2.522543953886817292e+01,2.870000074728448869e+00,7.890000393950556301e+00,9.855000010467689719e+01,1.442699999653628140e+02,1.044607203536052253e+02,7.929999650737016736e+00,2.113199774750252402e+01,2.870999923544616905e+01,3.222499990127046203e+02,4.349999993929889897e+00,2.404499920085382030e+02,2.010000055216320192e+00,5.171999973489786129e+01,2.931374853881901110e+00,1.437000064175596137e+01
1.010963323164984786e+03,2.651141341869847423e+01,3.140000008389035369e+00,6.949999594719837859e+00,9.328000022594213192e+01,2.570700044008156055e+02,1.715648869601437809e+02,8.760000125532872772e+00,2.123999856262648933e+01,2.845000085475671980e+01,3.222199990412507304e+02,3.500000038181537931e+00,2.366300029597383627e+02,1.649999958998210836e+00,5.059000020965893896e+01,8.807845329538357415e-01,1.238999976795796343e+01
1.012463173065282717e+03,2.506264126853244179e+01,3.009999964334615363e+00,7.829999906471739379e+00,9.007000019972480231e+01,2.285500011932117559e+02,1.667672976255132085e+02,8.080000096638256579e+00,2.097599887382375528e+01,2.826999931996827087e+01,3.221700006503501754e+02,3.890000127810398833e+00,2.366300029597383627e+02,1.769999939834129954e+00,5.122000004180885213e+01,5.641477158858709817e-01,1.297999902029798136e+01
1.009632085024383400e+03,2.561205822121748099e+01,3.000000118782868874e+00,7.310000106203062842e+00,9.094999995695511075e+01,1.498100002587030986e+02,1.780319462640475763e+02,9.120000424396105032e+00,2.143200116359702179e+01,2.896000059985135522e+01,3.221599990983430075e+02,3.679999997401298018e+00,2.480799972123800217e+02,1.649999958998210836e+00,4.844000009312217259e+01,1.592449484886141686e+00,1.194000109840805024e+01
1.005646897963152242e+03,2.800690867894448743e+01,2.929999917494571005e+00,6.780000425803725861e+00,9.450000002964813461e+01,4.649999783955252042e+01,8.631962899660551614e+01,9.599999537380840664e+00,2.156400100799838526e+01,2.930999974793503071e+01,3.218400009643576709e+02,3.769999977011178061e+00,2.709800042546405621e+02,1.559999934943683275e+00,4.989000009218993625e+01,1.639017859374140240e+00,1.188000052827046460e+01
1.006076236954495698e+03,2.462097937862475661e+01,3.420000044086582758e+00,1.031000034624715589e+01,9.678999946803170928e+01,2.565999732243744802e+01,1.442058927694089903e+02,1.271000013741525159e+01,2.772000081968348439e+01,3.820000011961394648e+01,3.223200005076195112e+02,5.720000024686878959e+00,4.618199998785282219e+02,2.790000007504971791e+00,3.756000005530793118e+01,9.014267771637196613e-01,1.806000094502921982e+01
1.008711627926124038e+03,2.701602655082254500e+01,3.780000126624174506e+00,1.300999995893941907e+01,9.696000033290798115e+01,8.343984347902733134e-07,1.612225774672243404e+02,2.346999985735823913e+01,3.369600013672458516e+01,4.699999993968641121e+01,3.218400009643576709e+02,6.600000018135037116e+00,5.037999988466251580e+02,3.020000034819796841e+00,2.582999992370493558e+01,1.042302906579013033e+00,1.981999898079180511e+01
1.009300500092247717e+03,3.156744264699054625e+01,3.020000066371576253e+00,1.181999974305244550e+01,9.708999980608852809e+01,8.343984347902733134e-07,1.531213317026597736e+02,1.991999999007743227e+01,2.763599903383692435e+01,3.867000014703140209e+01,3.218400009643576709e+02,5.720000024686878959e+00,3.625800046182167193e+02,2.519999935341389552e+00,3.012000040913166288e+01,6.498879441924431122e-01,1.907999942440421748e+01
1.011940032072032636e+03,2.927627454960869002e+01,2.840000025102780601e+00,1.301999983907008129e+01,9.708999980608852809e+01,8.343984347902733134e-07,1.301557831985437588e+02,1.893000001181263769e+01,2.559599861124726061e+01,3.576000007828356075e+01,3.222199990412507304e+02,6.520000006595246589e+00,3.893000007092770716e+02,2.829999975498552978e+00,3.019999975816707760e+01,3.141297031308147414e+00,2.095999972173837378e+01
1.004504979918137792e+03,2.836944674322148074e+01,2.809999975477112333e+00,1.271999981506567323e+01,9.645999976947994980e+01,8.343984347902733134e-07,8.964996645344568549e+01,2.114999988638134454e+01,2.624399831861538956e+01,3.681000011198794653e+01,3.222199990412507304e+02,6.630000055834841532e+00,4.465499997779511432e+02,3.240000012494844928e+00,2.781999963234465767e+01,1.396852985059321206e+00,2.011999958888694096e+01
1.005330601009884845e+03,2.599620382081571535e+01,2.829999923065819711e+00,1.572999993524042850e+01,9.639999992630549741e+01,8.343984347902733134e-07,1.021600208748648697e+02,2.249999980196261617e+01,2.748000016015815561e+01,3.871999990202176889e+01,3.222700021167189561e+02,8.679999984445744943e+00,5.915800008929129490e+02,4.279999987307300913e+00,2.591999970431764311e+01,1.649914253988468360e+00,2.513000010092673264e+01
1.008402911037213357e+03,3.047226267585922344e+01,2.720000083085321485e+00,1.414000029069499575e+01,9.772999962952874853e+01,8.343984347902733134e-07,1.070271335263743993e+02,2.057000007441050116e+01,2.629200156054584880e+01,3.704000010704008616e+01,3.220500007645347296e+02,7.959999997390976745e+00,5.953999992102013721e+02,4.099999996839628125e+00,2.800999962514736197e+01,3.026138526703956000e+00,2.071999968378082002e+01
1.004829126946251563e+03,3.071687609682417275e+01,3.190000005603411015e+00,2.347000007187624959e+01,9.898999970274590510e+01,8.343984347902733134e-07,1.506306948532476611e+02,2.113000008402776331e+01,2.719200144207801628e+01,3.772000005488330743e+01,3.221100007074424525e+02,1.321000000381107675e+01,3.893000007092770716e+02,5.810000011958387667e+00,3.215999953993589600e+01,1.012110867419075966e+00,3.556000006855406781e+01
1.012557634182753645e+03,2.753871516300736744e+01,3.350000099283499733e+00,2.811999984059717406e+01,9.855999989150853935e+01,8.343984347902733134e-07,1.539810476780663464e+02,2.060000001897204669e+01,2.737199934503419030e+01,3.776999980987366712e+01,3.220600023165418975e+02,1.559999984797655337e+01,2.289999977558965725e+02,6.509999874549524890e+00,3.626000003255992254e+01,8.683161664293391757e-01,4.375999996381658264e+01
1.008788624976002438e+03,2.844784328291498809e+01,3.120000060800327990e+00,2.149000001149110517e+01,9.966000000886563726e+01,8.343984347902733134e-07,2.245683791278989361e+02,2.118000007197406376e+01,2.524800231997361522e+01,3.479000034308465672e+01,3.216199996121734443e+02,1.056999988997706907e+01,2.061000092506132830e+02,4.319999993728470322e+00,3.978000011519855406e+01,1.778813425803609682e+00,3.501999998314957452e+01
1.004726661919505887e+03,2.580132365777265946e+01,3.059999961548991010e+00,1.923999994458567642e+01,9.987000002106849195e+01,8.343984347902733134e-07,1.686316154146630595e+02,1.854999997085361585e+01,2.408399756626305788e+01,3.306000036153704968e+01,3.216300011641806122e+02,9.270000036179315117e+00,1.984700040467714643e+02,3.639999999851359469e+00,4.324999992075955646e+01,2.682509160307263052e+00,3.281999991552945062e+01
1.006804314003039281e+03,2.773301031754218826e+01,2.979999914708947095e+00,1.306999984307081775e+01,9.999999949424903889e+01,1.299986025762791542e-01,1.909940930538334953e+02,1.389000004577286695e+01,2.235600007440658743e+01,3.048000022939763909e+01,3.221100007074424525e+02,6.020000001216325280e+00,1.755699970045109808e+02,2.430000064997213549e+00,4.424999999086806923e+01,1.034258814474821264e+00,2.345999955648133550e+01
1.005365563979059289e+03,2.615679849381459832e+01,2.959999967120239717e+00,3.699999938019491452e+00,9.999999949424903889e+01,6.180005422129084991e+00,1.770025772571823097e+02,5.749999983453401242e+00,2.320800189738395147e+01,3.182999965619533356e+01,3.225700018312576276e+02,1.780000190544652305e+00,1.564800061172924188e+02,7.000000466678697464e-01,4.062999986702206456e+01,1.095621571921005399e+00,7.850000731872206927e+00
1.004067651986720421e+03,2.569027223359794831e+01,3.129999906352074479e+00,1.919999554254360419e+00,9.980000039106239740e+01,2.956000479397576441e+01,1.765049207019052915e+02,4.189999973878970607e+00,2.314799914081478960e+01,3.149000011384928399e+01,3.228899999652429642e+02,9.300002347963003402e-01,1.488500009134506286e+02,3.600001265844907650e-01,4.298000006597357725e+01,1.253628506941618426e+00,4.540001049346606976e+00
1.006804746003347304e+03,2.576272287195718036e+01,3.150000110425996258e+00,1.860000273470383547e+00,9.880000038639090576e+01,6.216000284108167762e+01,1.488147010797863743e+02,3.990000022093770582e+00,2.263199927784802412e+01,3.063999996325747688e+01,3.228300000223352413e+02,1.239999778927230345e+00,1.602999951660922306e+02,5.600000434075722566e-01,4.309000002581038302e+01,6.188355656427265705e-01,3.760000365336367167e+00
1.005256846910261402e+03,2.654364141795567988e+01,4.030000112696053627e+00,3.380000153753755399e+00,9.860000016101969322e+01,1.117100011569969240e+02,1.048837132528543776e+02,9.369999882065265240e+00,2.509199826291919067e+01,3.313999979689140929e+01,3.223999988699739561e+02,2.600000242082735724e+00,1.602999951660922306e+02,1.330000061339209783e+00,4.138999983823286755e+01,8.494778903115729474e-01,5.510000922434279857e+00
1.009026124056292133e+03,2.265226886032678522e+01,4.829999939883458993e+00,4.800000026035657896e+00,9.903999975908870113e+01,1.784099984550586555e+02,1.900808460555056740e+02,1.360999992044865081e+01,2.757600146064341828e+01,3.580999983327392755e+01,3.225700018312576276e+02,3.990000075490369280e+00,1.564800061172924188e+02,2.049999946354725822e+00,3.945999998333495284e+01,1.450054954272234520e+00,7.659999300201985051e+00
1.001677895903085982e+03,2.607382027858203344e+01,4.369999991159723152e+00,4.299999986028307575e+00,9.930999961446600821e+01,1.346199998311911372e+02,1.104017064062482518e+02,1.202000020734384300e+01,2.703600256839924754e+01,3.565999970515171213e+01,3.229999982990512422e+02,3.449999930852016838e+00,1.526700084992277198e+02,1.760000005477116769e+00,4.104000012146361343e+01,1.179067245014841170e+00,6.749999997251897810e+00
1.005526268046608266e+03,2.848593163706276599e+01,3.550000088141002763e+00,2.919999634269057509e+00,9.954000032251673247e+01,2.121399971403035636e+02,1.821827885179878024e+02,5.359999981059793583e+00,2.341199882961752365e+01,3.125000008148396091e+01,3.229999982990512422e+02,1.879999871245551901e+00,1.335799990750319353e+02,9.900001412558308012e-01,4.662999994570786555e+01,1.173461553479168806e+00,5.639999541374123737e+00
1.001175982178020604e+03,2.648157309691439210e+01,3.420000044086582758e+00,3.699999938019491452e+00,9.719999970560577651e+01,2.504999941041842533e+02,1.183964257685399133e+02,4.770000026880985899e+00,2.210399990024255601e+01,2.939000004644051245e+01,3.229999982990512422e+02,2.280000195923574502e+00,1.183199886673482979e+02,1.150000013230155105e+00,5.035999985840804527e+01,1.043747538516664353e+00,6.890000580042002554e+00
1.011493006169711180e+03,2.792503113305435392e+01,3.859999916979004020e+00,4.229999618418826657e+00,9.423999996110246968e+01,2.981700020338568606e+02,9.178943261992807834e+01,1.081000011339351197e+01,2.391599917794559360e+01,3.155999994346601767e+01,3.229999982990512422e+02,2.919999754283755244e+00,1.412200142465860608e+02,1.389999974901993784e+00,5.094000026839344031e+01,1.171190206795752253e+00,7.819999325507019705e+00
1.007883247982426951e+03,2.748492121938762622e+01,3.700000079784130147e+00,4.160000457504185789e+00,8.921999980298943456e+01,3.425300038131372276e+02,1.306175033577672195e+02,1.408000009638127459e+01,2.341199882961752365e+01,3.101000004911864494e+01,3.229000015172501321e+02,2.930000256311986462e+00,2.709800042546405621e+02,1.459999976532142529e+00,5.149999981522425685e+01,2.168808720786110644e+00,6.800000846132022048e+00
1.012706594112039738e+03,2.541358651919658485e+01,3.109999958763367101e+00,4.450000601377933407e+00,8.756000012066829186e+01,1.636800000299690510e+02,9.215465417623801159e+01,1.044999981453027971e+01,2.159999955191448606e+01,2.907000057872082976e+01,3.228899999652429642e+02,2.980000096662435816e+00,4.465499997779511432e+02,1.430000019750750528e+00,5.262000027674685754e+01,1.128600931689233366e+00,7.969999629554589404e+00
1.002904112955296796e+03,2.455362101231754934e+01,2.940000019531532338e+00,3.019999642270526863e+00,8.955999984946512882e+01,4.974999786365083310e+01,1.479158130073637665e+02,5.930000132885018260e+00,2.060399836989705591e+01,2.777000004376237996e+01,3.229499999081506871e+02,1.909999775455822224e+00,3.205999981194727297e+02,8.599999186421944941e-01,5.349000020779446629e+01,9.207403132675539004e-01,5.969999313241658001e+00
1.007904329042002473e+03,2.221204996670207521e+01,2.820000077514073222e+00,3.309999786144274481e+00,9.355000008131943900e+01,1.463999472168487159e+01,1.206635521198515164e+02,3.110000041413954364e+00,2.068800015574362305e+01,2.811000044925954811e+01,3.229600014601579119e+02,1.689999943955701411e+00,3.282300033233145768e+02,8.199998737934373061e-01,5.179999976786375981e+01,9.951179070122153636e-01,5.889999300589138898e+00
1.010062727089363307e+03,2.887353417409747891e+01,2.840000025102780601e+00,2.940000601225221999e+00,9.291000025787921857e+01,8.343984347902733134e-07,1.814955095412623791e+02,5.220000400460024892e+00,2.099999790310116055e+01,2.855000036473744984e+01,3.225600002792504597e+02,1.270000217095641482e+00,2.328200053416736353e+02,5.199999985588150686e-01,5.016999986560534808e+01,2.011609787149311490e+00,5.860000136816744032e+00
1.012338894052998171e+03,2.938734517232521881e+01,2.959999967120239717e+00,4.190000097896174225e+00,9.709999959292017024e+01,8.343984347902733134e-07,7.897532116071234043e+01,6.919999990634225995e+00,2.168400133776105321e+01,2.944999940716849807e+01,3.221299991268891745e+02,1.760000254404472386e+00,2.404499920085382030e+02,7.300000034492617473e-01,4.698999992307179241e+01,5.855060580797628589e-01,8.980000630264914463e+00
1.011741581893712578e+03,2.788340375358724188e+01,2.829999923065819711e+00,5.939999634574476772e+00,9.797999991124277130e+01,8.343984347902733134e-07,1.631239443197569301e+02,5.640000106384009726e+00,2.230800201585178399e+01,3.063999996325747688e+01,3.225700018312576276e+02,2.610000210152825240e+00,5.610499979152991727e+02,1.179999970011547106e+00,4.474999999920628824e+01,1.492339107517072661e+00,1.229000031279051441e+01
1.002427312088699864e+03,2.726792539049953490e+01,2.950000121568493228e+00,5.660000577526233201e+00,9.919999971494875979e+01,8.343984347902733134e-07,1.339028855486863847e+02,7.059999571233992910e+00,2.254799749200146408e+01,3.081999977174368865e+01,3.229999982990512422e+02,2.579999771984414103e+00,3.320500016406029999e+02,1.050000054818614359e+00,4.515000001976920174e+01,1.499668854158455078e+00,1.083000064253027617e+01
1.011106792880978560e+03,2.603371240723367919e+01,2.929999917494571005e+00,6.429999794451161321e+00,9.962999952618611132e+01,8.343984347902733134e-07,1.324313844426426954e+02,9.930000132713695749e+00,2.436000195308015037e+01,3.368000008550116320e+01,3.229499999081506871e+02,3.310000110891687441e+00,3.053299962810540364e+02,1.349999930053236596e+00,3.861000023151144234e+01,6.196127741399432010e-01,1.101000011035024073e+01
1.011948161007084991e+03,2.329320455603934548e+01,3.000000118782868874e+00,1.220999989492766069e+01,9.801000039392228302e+01,8.343984347902733134e-07,8.460264537369648963e+01,1.809999998895022699e+01,2.956799864130262279e+01,4.174999998695226111e+01,3.229499999081506871e+02,7.199999971193928872e+00,1.133549970065062553e+03,3.230000001282655298e+00,3.148000028562147889e+01,1.523300593832109806e+00,1.863000075485430429e+01
1.005456427969335778e+03,2.810010200066568942e+01,2.990000016745907985e+00,1.371000001494970633e+01,9.613000007092819033e+01,8.343984347902733134e-07,1.337146502256878762e+02,1.753000000283393334e+01,2.876400006025571798e+01,4.051000010744848367e+01,3.229999982990512422e+02,7.329999989946087702e+00,1.664070028400968113e+03,3.280000018916013893e+00,3.041999967784067849e+01,2.166586523906253170e+00,2.146000036146480383e+01
1.006999371998057768e+03,3.083804712885854116e+01,3.170000058014703637e+00,1.330000010281316492e+01,9.566999977701131286e+01,8.343984347902733134e-07,1.435608394028814132e+02,1.547999999990884490e+01,2.997599768914542295e+01,4.212999989433883741e+01,3.225700018312576276e+02,6.420000058915276142e+00,1.354920035283825882e+03,2.839999986710742164e+00,2.539000008435773026e+01,1.179185743171367484e+00,2.045000048205087140e+01
1.003872821907198613e+03,2.675624836401453521e+01,3.020000066371576253e+00,1.094000003464796400e+01,9.518999990943115108e+01,8.343984347902733134e-07,1.954882483524158943e+02,1.153000022905763444e+01,2.798400050848621845e+01,3.923000007869195827e+01,3.225700018312576276e+02,4.820000095098541770e+00,7.022699921437076682e+02,2.159999992833631310e+00,2.616000048714582960e+01,2.115724200197254490e+00,1.777999977944901389e+01
9.992487041660552904e+02,2.650389754249028940e+01,2.829999923065819711e+00,1.053000012251142081e+01,9.403999973573125715e+01,8.343984347902733134e-07,1.400786125105591111e+02,9.819999773581963964e+00,2.550000249413764664e+01,3.563000002478771933e+01,3.229999982990512422e+02,4.420000037399590909e+00,6.602799942142286227e+02,1.970000010367563448e+00,2.968999963350077564e+01,2.754163791566746511e+00,1.694000076789397724e+01
1.010188159954005869e+03,2.940856054919663620e+01,2.870000074728448869e+00,1.095999979490929022e+01,9.210999991748666105e+01,6.199959154160694652e-01,1.238010349026299508e+02,5.430000253422017309e+00,2.204400232704904994e+01,3.015000029278921190e+01,3.229999982990512422e+02,4.760000019698931162e+00,3.854799977577442860e+02,2.119999947984874566e+00,3.935000002349814707e+01,2.573166332942588230e+00,1.886000107155438954e+01
9.994445397239700242e+02,2.470204635078598798e+01,3.020000066371576253e+00,9.000000362097386741e+00,9.334999985594822647e+01,6.099997253737200253e+00,1.340649933048190121e+02,3.409999969091755290e+00,2.135999889238915728e+01,2.884000015209313261e+01,3.229000015172501321e+02,4.310000121649530058e+00,2.519000047981570845e+02,1.890000074380401074e+00,4.260000008036817576e+01,1.564658550762380251e+00,1.563999888034598129e+01
1.012542353923850442e+03,2.715971159638756660e+01,3.359999944835245778e+00,6.249999538709548830e+00,9.571999983335412310e+01,6.811999737010179956e+01,1.550651914124501900e+02,6.120000183493425894e+00,2.471999775899249130e+01,3.357999971236930747e+01,3.221899990697968974e+02,3.229999832372826063e+00,4.961700005941498262e+02,1.500000021380899717e+00,3.766000026749792795e+01,1.031228952853639802e+00,1.095999926147012005e+01
1.007879510012940727e+03,2.321764107175603797e+01,4.539999930391557470e+00,5.960000601530641262e+00,9.520999948309443539e+01,1.636400005974107899e+02,1.943484356186311288e+02,7.539999648343409078e+00,2.750399918943555377e+01,3.615000023877109925e+01,3.221500022309035103e+02,2.919999754283755244e+00,4.274700003214676940e+02,1.249999971641695851e+00,3.694999971845163600e+01,1.830588149673361809e+00,1.007999912229243122e+01
1.011449362005535590e+03,2.942801996532026010e+01,3.739999974961544904e+00,3.699999938019491452e+00,9.036999997668934270e+01,1.866000005004851801e+02,1.739887959543965792e+02,5.479999759305977491e+00,2.371200224571201431e+01,3.142999988997017269e+01,3.217599979174355553e+02,1.679999975885611896e+00,3.167799998021843066e+02,6.199999569703558144e-01,4.269999995059293241e+01,1.374597361912982540e+00,7.070000047861967118e+00
1.000289997925292028e+03,2.832503825733968128e+01,3.409999942049621868e+00,2.970000241617213987e+00,8.852000013637477593e+01,2.422900024210269407e+02,1.741227597214915761e+02,3.300000092022361997e+00,2.208000087096515074e+01,2.937000083496526059e+01,3.224400003934349570e+02,1.440000208245312052e+00,3.740299988708583783e+02,5.499999553402070696e-01,4.579000002702246519e+01,1.059287827171109253e+00,6.400000782869433635e+00
1.011685876131242253e+03,3.201617468225497021e+01,3.200000107640372349e+00,2.060000289473322255e+00,8.533000003450341353e+01,3.825900068963885587e+02,1.699931087225937176e+02,3.219999918483345880e+00,2.072399869965972385e+01,2.756000055491217537e+01,3.229499999081506871e+02,1.100000225945970911e+00,3.091500038668311277e+02,4.499999969286663237e-01,4.944999991087748725e+01,1.178786920833058582e+00,3.750000644078902212e+00
1.008290353003296104e+03,2.868427692515572147e+01,2.950000121568493228e+00,1.880000033731707987e+00,7.794999989622573366e+01,5.515700123095870140e+02,9.544962996188473880e+01,3.049999670228523030e+00,1.982399881812755638e+01,2.653000059583416004e+01,3.229999982990512422e+02,8.599999243475293653e-01,1.717500079557111121e+02,3.299998623823952038e-01,5.411000029229757047e+01,8.056356318567847730e-01,3.399999187103645681e+00
1.009165823981479775e+03,3.309737190364833737e+01,2.970000069157200606e+00,3.209999778142805127e+00,7.836000013379981510e+01,3.247700014677466811e+02,1.450511969442232214e+02,3.460000439100394232e+00,2.044799949621828716e+01,2.749000072529543814e+01,3.229499999081506871e+02,1.359999929726450674e+00,1.679300003699340778e+02,5.499999553402070696e-01,5.361999966292487585e+01,1.520250749013701830e+00,5.860000136816744032e+00
1.004272279078650968e+03,2.534216780246018175e+01,3.100000113211620612e+00,4.380000233768452489e+00,8.594000000649293725e+01,2.608699954596804673e+02,1.695633846457828326e+02,3.580000217346578140e+00,2.074799772893712912e+01,2.778000051265112447e+01,3.229900014316117449e+02,2.160000045124353285e+00,2.442699995943152658e+02,9.200001396256816122e-01,5.048000024982214029e+01,1.393629732228809148e+00,8.609999730774724469e+00
1.005643624038890607e+03,3.003772429196127547e+01,3.009999964334615363e+00,4.939999554559779682e+00,8.403000000738951769e+01,2.917399998297277079e+02,1.037806415299273510e+02,3.570000316169785748e+00,2.073599821429842649e+01,2.786999955374311000e+01,3.229999982990512422e+02,2.209999885474803527e+00,2.442699995943152658e+02,9.699999651211004270e-01,5.165000013350925201e+01,1.863506002878392964e+00,1.120999902068513876e+01
1.008579197948642673e+03,2.433198118762378925e+01,2.940000019531532338e+00,6.290000265927039536e+00,8.226000003980016118e+01,1.880199997381268133e+02,6.473153333506080287e+01,4.509999703910354540e+00,2.142000164895831915e+01,2.907000057872082976e+01,3.229499999081506871e+02,2.480000091283514507e+00,2.022800016648362202e+02,1.130000144516128291e+00,5.179999976786375981e+01,1.652445023315530337e+00,1.511000019814354900e+01
1.007580767978075869e+03,2.352601200311094232e+01,3.479999886852704893e+00,9.969999595025255346e+00,8.484999999158191031e+01,7.275000185092119409e+01,1.125912058201532204e+02,9.330000277358095673e+00,2.614800220150578269e+01,3.563000002478771933e+01,3.229900014316117449e+02,4.070000087030159364e+00,2.747999933034403739e+02,1.669999981422589208e+00,4.528999999196821591e+01,1.694156027869044845e+00,1.872000048876428835e+01
1.005529271018921008e+03,2.580673185877022036e+01,3.020000066371576253e+00,7.590000369946146463e+00,8.673999992606628950e+01,1.706999785033663386e+01,1.251267607836159073e+02,7.939999551913809128e+00,2.438400098235755564e+01,3.357999971236930747e+01,3.229999982990512422e+02,3.069999809293245896e+00,2.557199938469569247e+02,1.240000037284682666e+00,4.746999994988456706e+01,1.958091789848162456e+00,1.358000023648825660e+01
1.004043126033898034e+03,3.072071834617166175e+01,2.879999920280195358e+00,7.110000090200124134e+00,8.847000008003196569e+01,8.343984347902733134e-07,1.205489255454001096e+02,6.890000287103848819e+00,2.378399933354422302e+01,3.282000032917173371e+01,3.229999982990512422e+02,3.219999864302736547e+00,4.847199993901417088e+02,1.450000042175129344e+00,4.628999997658540622e+01,2.459801538735815196e+00,1.278000010996308333e+01
1.006804053995553090e+03,2.526232826648369922e+01,2.929999917494571005e+00,9.059999642881365389e+00,8.974999972691240657e+01,8.343984347902733134e-07,1.626439708989760788e+02,7.019999966526825119e+00,2.479200003020035581e+01,3.431000027835401767e+01,3.229999982990512422e+02,3.959999904301028550e+00,4.541800000579083871e+02,1.730000048695724768e+00,4.290000003300767872e+01,2.592169524275520054e+00,1.571999889299849684e+01
1.005592314984887253e+03,2.686926675643987394e+01,3.000000118782868874e+00,1.307999972320147997e+01,9.207999999589942774e+01,8.343984347902733134e-07,1.344136343362769423e+02,4.889999805127169807e+00,2.490000084532432112e+01,3.442999986296111814e+01,3.225700018312576276e+02,5.199999949678241862e+00,3.244199964367612097e+02,2.239999928820793684e+00,3.902000014398774397e+01,7.830702085082777986e-01,2.335000038005642153e+01
1.007214037998562276e+03,2.996385479666209406e+01,3.070000063585952343e+00,3.103999983290112397e+01,9.420999947842295796e+01,8.343984347902733134e-07,1.803578025993651011e+02,9.289999708526249123e+00,2.683200045279001955e+01,3.734999996902213582e+01,3.225100018883499047e+02,1.184000010654362356e+01,5.572299995980107497e+02,5.019999971602371325e+00,3.032999989722797807e+01,1.034228080995722054e+00,5.090000053240554223e+01
1.011261096909093908e+03,2.927310763720286957e+01,2.909999969905863626e+00,2.324999999393827466e+01,9.659000036484506779e+01,8.343984347902733134e-07,1.910641910955725677e+02,1.184000005791222776e+01,2.594400008589655471e+01,3.619999999376146604e+01,3.224599988128816790e+02,9.329999978089389856e+00,5.228799983031086640e+02,4.110000008051817311e+00,2.734999986612655221e+01,2.082886111459885115e+00,3.896999999465864306e+01
1.008790673967738826e+03,2.651493211614999623e+01,2.909999969905863626e+00,1.723000005526247591e+01,9.761999973001150011e+01,8.343984347902733134e-07,1.095590333218436712e+02,8.999999682025240588e+00,2.189999778463332802e+01,2.987000011117115150e+01,3.228899999652429642e+02,6.109999980826205324e+00,3.396799975759562358e+02,2.209999972039401683e+00,2.962999977975897181e+01,1.435382470549850353e+00,2.879000011913119295e+01
1.008775234978819640e+03,2.359800964058267070e+01,3.150000110425996258e+00,1.652000011912152289e+01,9.645999976947994980e+01,8.343984347902733134e-07,1.690814410681814763e+02,8.109999800168633755e+00,2.325599995593875491e+01,3.162999977308275135e+01,3.228400015743424092e+02,6.590000050064946713e+00,3.244199964367612097e+02,2.379999932081091618e+00,2.948000014540446401e+01,1.180452707084227004e+00,2.741000046152347380e+01
1.004919577071077128e+03,2.728391767878419927e+01,2.909999969905863626e+00,2.086999999582028664e+01,9.719999970560577651e+01,8.343984347902733134e-07,9.711306761902613971e+01,6.929999891811016610e+00,2.308800156762128353e+01,3.171000007158823308e+01,3.229999982990512422e+02,8.100000000899417074e+00,3.358699999578914799e+02,2.919999999553080094e+00,2.676999945614115362e+01,8.515891535896823461e-01,3.386999980126964260e+01
1.008556531001096232e+03,3.198919677835680631e+01,3.029999911923322742e+00,3.704999958977255403e+01,9.776000011220826025e+01,8.343984347902733134e-07,9.276023486464774237e+01,1.043999991335348909e+01,2.468399921507639050e+01,3.405000017136232771e+01,3.229399983561435192e+02,1.503000006610700368e+01,6.679199908488055826e+02,5.670000008698089289e+00,2.251999932916261926e+01,1.899695526025016790e+00,5.941000103734476312e+01
9.999673756844491663e+02,2.459196050033222747e+01,3.029999911923322742e+00,3.849000042901062102e+01,9.730999960512302493e+01,8.343984347902733134e-07,1.492934365432185189e+02,1.374999998311075800e+01,2.731200177184068423e+01,3.811000021537083882e+01,3.229999982990512422e+02,1.550000016727565466e+01,1.160269984693100014e+03,5.889999947945549152e+00,1.968000123656035782e+01,9.246627131425708690e-01,6.180999917432748703e+01
1.003920800925973708e+03,2.896029153758787444e+01,4.919999960517857041e+00,3.466000048456277938e+01,9.811000050660788929e+01,8.499994218150192182e+00,1.212951850861704628e+02,1.492999989146837514e+01,2.941199976762385404e+01,3.844000015197926245e+01,3.229999982990512422e+02,1.356999992225059870e+01,1.301480006027750733e+03,4.930000024403019765e+00,1.885999867588580159e+01,2.650848369765381740e+00,5.522000009434507461e+01
1.007820386000518056e+03,2.817538611793236925e+01,9.550000010351315183e+00,3.268999996492537718e+01,9.620999948776592703e+01,2.717000574951995873e+01,1.183291346830176707e+02,1.567999995169404492e+01,3.721200046869451938e+01,4.359999998468253324e+01,3.229399983561435192e+02,1.360999979453095676e+01,1.259499980992029577e+03,5.179999997287047186e+00,1.996999870583110948e+01,2.288083214499644136e+00,5.244999993657576454e+01
1.010512576992609411e+03,2.383400093994992730e+01,5.280000043055448344e+00,1.563999980736962137e+01,9.560000014700523252e+01,6.890000258571961922e+01,1.648770183649820353e+02,1.131999989403330353e+01,3.148799873412962569e+01,4.125000006338303393e+01,3.227700000794275184e+02,6.350000015445576018e+00,6.106700010486200654e+02,2.410000042572835177e+00,2.712999994645294777e+01,7.154285933611548298e-01,2.590999966364057627e+01
1.002113382905243611e+03,2.871443275238809889e+01,4.809999992294751614e+00,1.209000012666486512e+01,9.413999984841686341e+01,2.247600018521205243e+02,1.505396584354047036e+02,1.302999986744663552e+01,2.827199922656635778e+01,3.692000009085742107e+01,3.227599985274203505e+02,4.699999944299321442e+00,4.045699979134514592e+02,1.900000008737414481e+00,3.533000024777051351e+01,2.837474886874527424e+00,2.163000010802730344e+01
1.001934208915125396e+03,3.034406723617068735e+01,6.459999996551109014e+00,1.321999985507302178e+01,8.673000013923464735e+01,5.286900081705373395e+02,2.066427475231591870e+02,1.645999995648125847e+01,2.944799831153995484e+01,3.624999974875182573e+01,3.229499999081506871e+02,5.139999874278632142e+00,2.786200008892174083e+02,2.040000011997712193e+00,4.086999996591976014e+01,1.465790455965956918e+00,2.376999988583393986e+01
1.007247541988461876e+03,2.904715915152798900e+01,6.159999981204202335e+00,1.168000021452832371e+01,8.027999988466662273e+01,5.117700047626913147e+02,1.243542351672883655e+02,1.957999997563012329e+01,2.890799941929579120e+01,3.585999958826429435e+01,3.229999982990512422e+02,5.459999920437793364e+00,2.061000092506132830e+02,2.309999930450942429e+00,5.149999981522425685e+01,1.493220952421221881e+00,1.962000007045690708e+01
1.006550300010755109e+03,2.497878429651436250e+01,6.539999995300175506e+00,1.204000012266413044e+01,7.704000021740822035e+01,6.685200235773406803e+02,1.333968518038482785e+02,3.598000011954640343e+01,3.057599933795875558e+01,3.788999982605633221e+01,3.229999982990512422e+02,6.799999980239745057e+00,1.717500079557111121e+02,3.070000014025567214e+00,5.659999969402630171e+01,5.031257594546962864e-01,2.142000035513854428e+01
1.005392721969281524e+03,2.786869417670078874e+01,4.359999889122762262e+00,5.619999850308740719e+00,7.691999996996702293e+01,5.048500052457224001e+02,1.266716476449609985e+02,1.915000000698259086e+01,2.521199859268185861e+01,3.284000040379810059e+01,3.229499999081506871e+02,3.439999962781927323e+00,1.373999881238317471e+02,1.599999979792440463e+00,5.972999935948223538e+01,1.291069251014063557e+00,1.132000043970284509e+01
1.010502742886709370e+03,2.982623964889583945e+01,3.479999886852704893e+00,4.909999914167791246e+00,7.726000001644271720e+01,5.613399896152455995e+02,1.853589525827517264e+02,1.105000015194822005e+01,2.240399813296139087e+01,2.978000020692804384e+01,3.223699988985200662e+02,2.800000137442675729e+00,1.297699829199899568e+02,1.299999950847466224e+00,5.953999936667953108e+01,1.570227743816309918e+00,1.029999971773505152e+01
1.004421756057312905e+03,2.566762162455973240e+01,8.320000027580626067e+00,9.530000042496723722e+00,7.132000039268051239e+01,5.220699958697528018e+02,1.149479915485429302e+02,1.227000014707534348e+01,3.673199914964385471e+01,4.481000002198148024e+01,3.223999988699739561e+02,4.689999976229231038e+00,1.412200142465860608e+02,2.180000015258010126e+00,4.788999995197292492e+01,1.400543161023645622e+00,1.951000089403199311e+01
1.003251460926597815e+03,2.231772721082465338e+01,6.889999999846295076e+00,1.270000005480434702e+01,7.507999991648409832e+01,1.510700002155658126e+02,1.313693997999656347e+02,1.247000009886054350e+01,3.702000045941181838e+01,4.744999989247749994e+01,3.229999982990512422e+02,5.500000059697223165e+00,1.908300074121945613e+02,2.390000020148456805e+00,4.645999996114663588e+01,1.234590423604709386e+00,2.461999973994283408e+01
1.005576969953593220e+03,2.232226710130210634e+01,4.020000010659092737e+00,1.864999992754437841e+01,8.127000010250647222e+01,1.261999998856452407e+02,1.920707642155860526e+02,1.459000011805223629e+01,3.087600016236542189e+01,4.223000005168290727e+01,3.229999982990512422e+02,7.420000002928351712e+00,3.587699977316633522e+02,3.219999990070466112e+00,5.241000010472005499e+01,1.141797277697389923e+00,3.815999998919370029e+01
1.006288424010629569e+03,2.552656302068600169e+01,4.469999985588474445e+00,2.155000000875014621e+01,8.318999999364635300e+01,6.414000033672239454e+01,1.865729783882740094e+02,2.018999997319368589e+01,3.647999897547982329e+01,5.030999999044719573e+01,3.229999982990512422e+02,1.170999998767431194e+01,2.862500060930592554e+02,6.180000042533510651e+00,4.507999999092403698e+01,7.442973899048818121e-01,3.674999997643615757e+01
1.006006997998902875e+03,2.868064007197255805e+01,3.750000076998506238e+00,2.663000020405321067e+01,8.640999994696839792e+01,2.165000032700288557e+01,2.123109461681950449e+02,1.832999997568365913e+01,3.991200011329102182e+01,5.680000003847290202e+01,3.229999982990512422e+02,1.338999996303083684e+01,3.244199964367612097e+02,6.829999925918876613e+00,3.609000021898131649e+01,9.119676872097186582e-01,4.343999991320651333e+01
