1010.28,25.55,18.57,18.12,98.55,0.01,188.88,19.17,68.232,78.45,264.66,7.48,461.82,3.43,13.29748566,1.48,31.02
1011.21,25.17,11.61,17.25,99.62,32.83,194.24,13.49,48.492,58.17,264.66,7.63,595.4,3.43,13.41132263,1.55,31.13
1012.36,25.86,8.79,12.04,97.46,311.73,108.6,6.68,30.564,34.38,265,5.31,553.42,2.43,13.48847015,1.24,21.29
1012.66,27.67,11.33,10.91,88.45,532.91,119.74,5.77,30.996,31.16,265,4.48,446.55,2.14,13.5187915,1.78,19.24
1012.78,29.14,5.5,8.91,77.99,610.51,116.88,5.72,23.676,28.68,265,3.68,435.1,1.87,13.48703308,1.56,18.48
1011.23,29.41,13.53,12.03,78.18,343.47,119.9,8.68,47.448,53.6,265,5.03,408.38,2.49,13.38180542,1.4,23.25
1009.65,28.91,7.02,13.06,81.86,124.37,124.78,9.71,41.784,54.71,264.32,5.37,450.37,2.6,13.20096832,1.61,27.16
1009.69,28.87,4.49,10.76,83.69,254.85,138.83,6.47,16.872,19.55,264.65,4.69,362.58,2.18,12.99197662,2.65,21.91
1009.71,28.83,4.67,12.42,84.64,209.75,136.05,3.11,12.24,12.02,265,4.43,301.52,2.07,12.81895538,2.26,24.97
1008.63,28.51,4.06,14.29,85.59,79.3,124.73,1.88,14.172,15.98,265,4.39,343.5,1.99,12.7086084,1.45,29.58
1008.05,28.59,3.22,14.12,85.65,90.39,113.04,1.64,13.584,16.36,265,4.42,343.5,1.98,12.66208252,1.19,32.63
1007.15,28.4,6.956666667,17.7,86.41,57.76,108.45,7.31,89.988,27.93,265,5.91,312.97,2.73,12.67799805,1.06,33.38
1007.98,27.96,6.752962963,15.46,88.06,10.31,99.07,15.75,81.804,28.23,265,5.55,332.05,2.56,12.76244873,0.93,28.13
1007.43,27.67,2.34,14.42,89.41,0,100.54,5.58,17.796,24.32,264.67,4.53,358.77,2.06,12.92500732,0.71,28.63
1010.89,27.6,2.43,15.46,90.23,0,107.43,3.25,17.412,23.58,265,5.05,377.85,2.34,13.1739502,0.96,30.74
1010.67,27.36,1.99,13.3,90.68,0,98.68,2.89,15.54,21.31,265,4.61,301.52,2.11,13.46916504,0.82,25.06
1011.01,27.18,1.95,13.03,91.31,0,92.09,1.61,10.164,12.96,265,4.92,286.25,2.34,13.74327881,0.59,24.79
1012.04,26.9,1.89,12.09,93.81,0,96.13,1.2,10.56,13.66,265,5.45,270.98,2.69,13.85443359,0.61,21.89
1011.45,26.7,1.41,12.54,94.54,0,102.26,1.14,9.648,12.96,265,5.31,251.9,2.66,13.77360352,0.66,22.44
1011.02,26.64,3.48,14.97,94.31,0,111.62,2.02,15.312,18.67,265,5.49,267.17,2.59,13.58869385,0.94,27.17
1010.41,26.23,49.3,24.2,93.59,0,117.16,23.85,78.588,47.47,265,6.93,438.92,2.99,13.37962891,1.41,42.45
1010.08,25.63,29.19,18.24,91.65,0,108.21,63.2,74.772,72.42,265,5.89,541.97,2.65,13.16757813,1.13,33.08
1008.97,25.02,8.03,13.96,92.44,0,128.65,40.99,49.752,65.64,265,4.64,557.23,2.19,12.91988281,1.18,24.2
1010.73,24.48,3.56,14.46,96.45,5.42,135.07,18.1,32.148,44.92,265,4.47,637.38,2.15,12.62734375,1.37,27.52
1011.49,24.48,3.32,12.54,94.61,19.41,132.23,15.65,25.368,34.67,265,3.76,637.38,1.83,12.29658203,1.14,27.62
1012.86,24.32,3.85,11.72,95.39,11.69,108.85,12.19,27.288,36.87,265,3.68,713.72,1.75,12.1825,0.82,24.97
1012.2,24.21,16.66,15.45,95.46,99.81,117.35,14.19,53.388,58.11,264.67,4.4,736.62,2.13,12.38943359,1.16,28.54
1011.25,24.93,11.22,12.94,89.85,271.48,109.2,13.4,30.96,31.31,264.33,3.71,629.75,1.8,12.70591797,1.2,24.93
1011.42,25.39,4.07,10.86,85.45,158.48,113.98,12.45,17.928,21.84,264.67,3.28,572.5,1.6,13.00742188,1.19,23
1013.32,26.28,4.37,7.65,81.83,304.29,104.94,8.43,15.828,18.11,265,3.02,530.52,1.6,13.29490234,1.19,15.28
1012.19,27.05,4.53,11.46,79.14,306.43,123.32,9.94,18.972,22.8,265,3.91,515.25,1.99,13.59548828,1.61,22.7
1008.53,26.83,5.27,15.93,80.69,118.69,138.17,14.37,35.712,47.9,264.67,5.06,545.78,2.41,13.9278125,1.99,30.67
1009.05,26.38,9.58,22.85,83.24,92.78,135.08,18.89,56.364,73.65,265,6.31,595.4,2.94,14.288125,1.83,43.01
1009.63,26.65,16.37,26.19,83.23,150.35,128.26,28.57,69.384,83.64,265,7.13,599.22,3.36,14.54421875,1.69,51.79
1006.56,26.49,19.54,30.12,83.58,63.62,123.13,33.11,88.5,108.75,264.67,8.08,614.48,3.79,14.58234375,1.73,61.81
1007.64,26.11,6.643,39.22,85.16,25.19,120.54,38.17,123.396,134.72,265,9.58,687,4.54,13.59515625,1.63,77.11
1009.29,25.83,7.924,42.49,86.9,3.8,131.26,48.49,123.036,144.77,265,10.46,755.7,4.91,12.36078125,1.57,85.54
1009.92,25.66,9.546,40.43,87.88,0,123.39,52.52,130.416,141.7,265,11.12,709.9,5.54,11.815625,1.46,79.97
1010.89,25.45,9.8253,39.25,88.36,0,116.72,56.05,131.436,142.37,265,12.06,641.2,6.1,11.92296875,1.21,76.98
1011.77,25.27,8.9517,39.66,89.33,0,117.16,44.65,119.712,147.75,265,12.01,599.22,5.95,12.23140625,1.31,74.02
1012.03,25.17,8.7843,40.11,89.61,0,114.79,39.71,116.82,151.82,265,11.4,572.5,5.44,12.3065625,1.48,70.36
1011.66,25.02,9.35983,45.86,90.27,0,122.99,49.63,149.076,145.27,265,12.4,576.32,5.7,12.20390625,1.48,80.47
1011.07,25.03,22.44,33.05,90.12,0,124.68,39.05,105.264,130.6,265,8.77,583.95,3.98,11.93625,1.44,61
1010.54,25.04,11.11,28.5,90.64,0,118.13,43.22,88.032,120.95,265,7.96,572.5,3.69,12.6825,1.06,53.22
1009.83,25.08,19.12,31.16,90.77,0,137.79,58.19,100.932,128.87,265,8,568.68,3.73,14.01625,1.06,56.09
1009.77,25.12,20.71,28.95,90.71,0,126.73,51.69,98.532,122.66,265,8.28,557.23,4.12,14.3475,0.86,49.83
1010.15,25.22,9.72,26.76,90.55,0,92.14,38.51,77.568,106.66,265,8.59,595.4,4.56,14.335,0.46,47.9
1010.46,25.2,9.26,24.1,91.24,0.04,159.81,33.14,66.852,90.45,265,8.51,694.63,4.62,14.53125,0.69,42.74
1011.12,25.04,20.74,25.18,93.15,4.81,186.72,28.62,74.04,84.22,265,9.07,938.9,4.87,14.71125,0.63,44.41
1011.78,24.78,27.54,33.22,97.12,18.73,261.08,27.48,64.932,59.52,265,10.49,1190.8,5.25,14.8625,0.77,63.39
1012.36,24.84,18.4,27.63,97.94,44.76,280.47,33.51,47.808,46.71,265,8.99,1057.22,4.45,14.81875,0.84,50.9
1011.6,24.96,45.45,48.16,97.34,31.22,258.65,41.71,74.94,47.73,264.67,12.56,1118.28,5.47,14.73125,0.8,98.23
1012.9,24.4,32.89,34.33,97.67,45.11,256.21,28.43,56.076,37.43,265,9.3,935.08,3.99,14.32125,0.98,73.16
1012.45,24.2,10.03,14.45,93.96,65.4,155.49,15.63,26.868,26.72,265,4.09,713.72,1.79,6.45,1.26,30.82
1011.72,24.17,23.81,29.86,94.53,72.12,148.73,14.52,44.736,33.59,265,8.21,797.68,3.15,4.46,1.11,63.12
1008.11,23.76,33.26,38.19,95.51,53.73,212.47,19.23,56.676,37.81,265,11.73,877.83,4.57,10.17,1.11,79.36
1007.51,23.21,30.66,21.4,98.46,70.51,167.26,18.58,55.8,40.29,264.64,7.53,931.27,3.34,15.57,0.71,37.26
1009.7,23.65,26.1,17.87,97.59,107.3,173.02,14.31,53.064,43,265,6.37,1198.43,3.09,17.33,0.58,32.39
1009.55,23.96,29.87,36.47,95.88,47.61,214.3,32.65,63.072,53.03,265,10.8,1511.4,4.62,15.42,0.68,74.14
1009.8,24.04,37.14,53.71,94.1,18.1,218.46,46.89,75.42,61.24,265,13.07,1480.87,5.06,13.91,0.65,111.89
1010.33,24.15,23.12,43.85,92.22,4.98,229.62,26.96,67.608,70.49,265,9.51,1301.48,3.74,12.18,0.55,95.83
1011.33,24.22,36.26,41.59,91.81,0,138.69,20.44,74.748,61.53,265,9.8,1366.37,3.88,12.42,0.59,83.74
1012.44,24.27,9.69,21.34,90.44,0,135.14,14.31,40.176,48.09,265,6.28,1091.57,2.86,15.13,0.43,42.13
1011.83,24.04,11.36,24.99,91.5,0,263.59,17.89,45.072,53.23,264.64,7.35,1389.27,3.56,12.82,0.8,51.66
1013.35,23.87,9.96,21.97,90.76,0,288.11,18.96,39.852,47.13,265,6.69,1244.23,3.28,15.47,0.89,44.16
1013.24,23.68,3.03,18.12,89.94,0,281.22,17.41,24.684,34,265,4.76,797.68,2.19,18.9,0.89,39.19
1012.47,23.7,4.13,20.36,89.37,0,224.72,25.39,31.74,43.32,265,5.11,805.32,2.18,16.86,0.57,44.85
1011.64,23.69,5.97,25.63,89.33,0,200.35,27.11,35.976,47.23,265,5.93,931.27,2.5,15.12,0.44,53.14
1010.99,23.58,13.87,34.25,90.84,0,180.58,26.26,46.872,52.19,265,7.23,1179.35,3.04,11.83,0.41,76.39
1009.52,23.56,19.5,35.84,91.27,0,179.91,33.11,51.12,50.21,265,8.15,1175.53,3.3,11.72,0.34,74.04
1009.83,23.54,16.69,36.77,91.24,0,189.4,38.03,47.58,48.97,265,9.91,1637.35,4.19,11.85,0.39,73.33
1011.48,23.46,21.21,36.33,93.67,0.77,175.2,32.32,47.388,41.66,265,9.27,1358.73,4.2,11.46,0.57,73.56
1011.83,23.66,35.21,39.81,93.27,17.28,143.59,36.88,58.644,37.9,265,9.27,1186.98,3.99,12.07,0.39,84.88
1012.49,23.96,15.453,47.53,92.63,42.18,181.83,40.01,78.6,34.69,265,10.79,1522.85,4.62,12.83,0.49,104.23
1010.14,24.36,13.689,52.31,90.89,81.29,160.69,50.24,87.276,37.28,264.27,11.6,1473.23,4.82,13.54,0.49,111.54
1011.63,25.01,13.046,46.98,88.08,151.87,111.02,78.63,84.3,46.58,264.63,11.56,1297.67,5.08,16.88,0.59,97.24
1012.53,25.41,11.541,44.86,86.53,177.8,125.91,64.62,105.756,52.57,265,13.17,1377.82,5.93,17.55,1.29,86.05
1010.45,25.51,14.093,49.35,86.32,120.86,132.26,62.14,120.06,67.65,265,15.8,1438.88,7.34,16.69,1.11,92.38
1009.36,25.69,14.5023,44.54,86.25,108.23,110.79,69.74,135.06,74.04,265,14.58,1114.47,6.87,16.55,1.06,84.62
1008.22,25.78,14.8752,27.59,85.43,130.91,115.95,37.35,79.896,63.65,265,8.32,736.62,3.99,28.42,1.13,57.58
1007.15,25.89,9.79,24.31,84.26,161.19,114.67,15.45,47.292,59.1,265,6.32,671.73,3.02,43.58,1.26,51.42
1007.42,26.01,4.43,20.52,84.1,128.65,120.43,14.86,29.808,39.93,265,5.71,683.18,2.77,62.34,1.44,40.55
1006.56,25.97,2.74,23.38,85.15,52.74,125.86,15.08,31.26,44.8,265,6.1,797.68,2.86,61.69,1.37,52.5
1006.27,25.9,2.99,30.24,86.23,17.76,127.65,18.28,45.468,66.69,265,7.3,858.75,3.28,48.3,1.42,70.23
1005.32,25.54,3.45,36.21,89.02,3.35,121.69,21.15,69.636,103.88,265,9.29,854.93,4.27,27.46,1.08,77.11
1004.38,25.38,19.22,34.76,91.06,0,113.69,24.33,93.816,117.59,264.64,10.61,824.4,5.17,16.76,0.94,70.39
1006.38,25.61,18.22,32.76,91.97,0,120.63,27.57,95.58,121.88,264.64,10.6,767.15,5.26,13.99,1.12,64.61
1008.55,25.74,4.69,26.12,93.65,0,118,19.16,60.684,87.92,265,10.07,698.45,5.1,22.74,1.09,47.36
1008.69,25.9,1.84,23.17,93.96,0,113.22,26.78847891,40.164,60.05,265,9.86,580.13,5.15,31.42,1.3,38.34
1006.91,25.81,1.9,19.54,95.73,0,114.3,22.76570871,32.16,47.4,264.63,9.34,503.8,4.96,33.33,1.37,33.79
1006.3,25.57,2.52,15.25,98.37,0,114.93,20.49311464,29.856,42.92,264.63,7.35,454.18,3.78,29.1,1.21,25.96
1006.89,25.47,1.88,12.26,99.67,0,119.94,26.40783406,23.604,34.1,265,5.76,404.57,2.95,27.59,1.06,20.5
1006.11,25.45,1.82,10.79,100,0,118.76,27.89504383,17.052,23.93,265,5.04,366.4,2.61,26.44,1.08,19.12
1005.98,25.57,1.74,11.15,99.99,0,124.52,21.70396631,14.832,20.57,265,4.87,347.32,2.43,25.56,1.06,21.25
1005.85,25.73,1.75,10.62,99.84,0,111.63,19.58933755,13.08,17.82,265,4.87,320.6,2.47,24.6,0.92,18.35
1006.09,26,2.41,10.42,98.92,1.62,109.56,17.86019044,15.864,21.14,265,4.99,370.22,2.51,21.28,0.88,17.81
1006.91,26.1,7.94,13.84,98.58,7.23,110.75,20.18764471,36.12,44.42,265,5.6,572.5,2.74,12.51,0.87,23.14
1006.2,26.37,19.78,15.86,98.62,34.74,110.09,22.80449477,51.732,50.72,265,6.52,583.95,3.08,8.85,1.02,26.48
1005.28,26.93,31.65,17.96,96.86,91.93,110,18.89051344,58.836,43.64,264.65,6.43,446.55,3.01,10.22,1.28,34.44
1006.56,27.8,19.77,20.21,93.94,117.79,124.98,22.91084556,37.788,28.9,264.65,6.14,389.3,2.84,15.8,1.7,38.5
1006.04,28.71,5.58,18.03,90.39,240.74,136.91,27.85429654,16.032,16.57,264.64,6.07,301.52,2.72,25.38,2.52,32.68
1003.76,29.51,5.14,18.89,87.12,382.26,138.35,26.40020434,11.496,10.13,264.64,6.48,286.25,2.99,33.63,2.99,37.03
1002.74,29.48,3.48,19.62,87.13,298.47,138.92,24.30256426,8.076,7.32,264.65,6.84,278.62,3.22,39.88,3,37.5
1002.93,29.88,3.28,19.75,86.03,488.52,142.34,23.68947416,7.296,6.41,264.65,7.58,282.43,3.57,46.31,3.22,36.01
1001.76,29.92,3.28,23.58,85.63,378.97,139.1,24.30713718,8.724,8.65,265,8.5,332.05,3.98,51.95,2.87,41.07
1000.62,29.59,3.49,26.96,86.53,251.21,124.16,23.29597472,12.132,13.64,265,9.13,385.48,4.33,48.38,2.11,48.36
1001.35,29.23,3.77,30.19,87.94,134.9,118.13,23.48518218,17.1,21,265,10.19,427.47,4.75,45.39,1.97,56.52
1001.29,28.69,3.08,32.46,89.79,51.84,116.07,28.24292584,26.604,36.97,265,10.96,454.18,5.27,38.8,1.75,65.37
1000.22,28.06,2.46,31.96,91.38,6.81,110.56,26.89675558,34.116,49.7,265,11.19,431.28,5.49,32.15,1.33,58.97
1001.01,27.75,1.79,27.4,91.51,0,107.9,21.37396788,18.204,25.81,265,10.3,404.57,5.19,38.08,1.13,47.65
1003.38,27.9,1.76,23.77,89.82,0,113.32,20.66515142,13.908,19.09,265,9.43,343.5,4.79,40.41,1.16,40.95
1002.92,27.94,1.96,24.71,88.59,0,112.84,30.88506571,18.912,26.63,264.64,9.45,358.77,4.79,37.07,1.18,43.6
1003.34,27.9,1.43,24.97,88.28,0,110.82,32.90405859,16.956,24.39,264.64,9.62,316.78,4.86,34.93,1.19,43.7
1004.32,27.81,1.24,24.82,89.01,0,117.09,27.56893039,16.848,24.51,265,9.6,293.88,4.75,27.86,1.39,44.16
1003.69,27.86,1.49,24.46,89.26,0,118.4,32.97739833,19.428,28.18,265,9.61,244.27,4.83,23.9,1.43,39.39
1003.1,27.83,1.58,25.65,88.62,0,120.34,29.67369592,22.008,32.06,265,10.09,240.45,5,21.85,1.29,40.8
1002.38,27.65,1.81,24.65,89.17,0,113.45,22.33549239,22.212,32.05,265,9.85,255.72,4.91,22.62,1.09,40.4
1000.56,27.15,2.05,24.08,91.43,0,106.92,13.67207477,22.62,32.32,264.63,9.76,282.43,4.79,23.88,0.9,38.35
1000.69,26.88,2.22,25.81,92.62,0,116.67,12.28800308,19.572,27.27,264.63,10.2,377.85,5.16,25.98,0.88,42.53
1002.39,26.77,3.48,27.81,93.26,8.5,124.17,17.34718724,26.46,36.13,265,11.21,622.12,5.73,21.42,0.66,48.85
1002.84,26.84,23.94,45.04,93.53,60.39,137.36,17.6341797,61.824,60.18,265,13.45,957.98,6.63,12.93,0.7,90.3
1000.69,27.88,27.43,47.02,89.63,218.71,127.64,21.03273612,62.364,55.67,264.62,13.69,1022.87,6.69,17.2,1.05,94.91
1001.39,29.17,7.64,33.57,84.97,404.19,127.17,25.16293996,29.712,34.85,264.62,11.35,507.62,5.49,34.22,1.69,62.81
1004.42,30.12,11.18,35.12,82.33,600.63,128.51,26.21273336,38.46,43.13,265,12.32,389.3,5.86,36.64,1.91,63.03
1004.14,31.03,11.1,37.16,78.61,717.28,125.87,24.00910721,39.168,44.36,265,13.19,393.12,6.09,43.4,1.94,69.71
1003.41,32.1,8.03,38.98,73.09,771.6,133.82,27.13874047,36.012,44.13,265,13.98,454.18,6.42,57.88,1.8,73.45
999.76,32.84,11.61,41.05,68.23,758.69,137.74,27.7343777,52.608,64.64,264.28,15.12,473.27,6.82,61.06,1.78,72.17
998.59,33.26,27.98,45.9,69.11,679.87,142.91,27.67661115,99.792,113.46,264.28,17.28,503.8,7.89,45.25,2.2,79.59
998.94,33.31,29.96,48.05,71.12,553.89,140.61,33.37318581,111.396,128.68,264.64,18.01,503.8,8.08,43.01,2.57,87.37
999.49,33.31,20.93,49.3,71.86,390.69,133.19,31.70522781,111.192,142.2,265,16.69,541.97,7.45,47.25,2.49,91.97
997.73,32.39,19.87,52.58,73.52,209.3,127.46,31.12832015,128.724,171.32,265,16.18,660.28,7.44,46.58,2.44,103.56
999.4,31.03,10.9,47.78,78.18,67.42,123.23,33.41547619,117.66,167.72,265,15.36,694.63,7.18,43.07,2.09,89.21
999.99,29.88,4.11,40.68,82.88,9.88,120.12,25.02792854,59.724,87.32,265,13.93,618.3,6.73,54.63,1.55,78.34
1000.62,29.13,2.05,34.5,85.96,0,116.92,17.42159944,24.924,35.93,265,11.97,587.77,6.01,59.9,1.26,70.78
1001.48,28.88,2.5,36.16,88.43,0,118.8,17.95146652,32.532,47.12,265,13.5,614.48,6.85,50.55,1.15,68.11
1002.28,28.8,2.39,38.77,87.63,0,121.4,13.35080782,44.64,66.3,265,14.32,671.73,7.15,43.05,1.28,76.22
1002.86,28.71,2.26,32.17,86.66,0,119.89,12.16998813,39.288,58.04,265,12.6,549.6,6.34,42.41,1.33,57.72
1002.84,28.8,2.13,27.82,86.52,0,118.35,17.5704862,45.54,68.12,265,11.33,404.57,5.61,35.48,1.5,49.44
1001,28.79,1.91,24.65,86.83,0,130.84,20.83359901,37.752,56.24,264.64,10.31,335.87,5.08,38.85,1.93,40.61
1001.82,28.75,1.79,24.4,87.06,0,126.36,24.023175,28.5,41.93,265,10.41,309.15,5.14,42.86,1.71,38.98
998.45,28.31,2.03,25.43,87.79,0,114.73,24.48071697,26.916,39.07,264.64,10.36,301.52,5.14,40.8,1.25,43.54
998.14,27.83,2.68,27.44,89.65,0,114.56,23.79944556,29.76,42.54,264.64,10.94,328.23,5.42,35.56,1.2,46.01
999.64,27.7,2.53,27.3,90.2,0,116.84,21.87391234,25.548,36.17,264.64,11.44,358.77,5.7,37.98,1.33,44.25
1001.43,27.73,2.68,32.65,90.16,8.69,124.8,20.50630516,29.412,42,265,12.13,477.08,6.02,36.11,1.28,58.42
1002.03,27.82,8.16,40.05,89.94,53.59,129.74,19.71971215,54.528,72.96,265,13.75,683.18,6.6,24.76,1.39,74.83
1001.17,28.73,12.44,41.59,86.2,192.09,126.69,21.02166316,61.98,78.06,264.63,14.1,713.72,6.73,25.08,1.67,79.42
1002.97,29.73,6.51,34.6,82.69,364.66,122.15,22.90294919,33.48,42.5,265,12.25,515.25,5.85,43.48,2.01,64.83
1003.23,30.5,7.18,33.34,79.88,523.68,119.06,23.71600044,30.936,37.46,265,12.01,416.02,5.67,50.35,2.08,59.54
1003.22,31.23,9.37,33.81,77.48,658.35,124.1,25.13416505,54.012,70.28,265,12.28,435.1,5.74,53.07,2.34,63.52
1002.74,32.03,8.39,34.36,75.42,755.91,130.85,24.67388564,53.904,71.53,265,13.19,450.37,6.03,85.43,2.59,65.95
1000.44,32.73,8.8,37.1,72.87,773.02,133.58,25.36015431,47.916,61.49,265,14.54,484.72,6.55,82.64,2.57,67.49
999.36,33.33,8.73,37.56,70.21,697.02,134.62,26.41644418,57.336,76.49,264.64,14.59,526.7,6.6,80.06,2.58,62.44
996.99,33.59,7.84,41.18,69.59,573.53,131.52,27.5768761,56.796,77.01,264.64,14.98,545.78,6.84,105.61,2.53,72.02
998.98,33.52,7.72,44.52,71.02,411.34,126.81,27.40845088,56.424,76.59,265,14.36,545.78,6.36,89.35,2.34,85.36
997.34,32.76,4.76,41.82,73.92,225.82,118.91,26.9677183,38.712,53.38,264.64,14.16,557.23,6.51,86.31,2.05,80.99
994.78,31.31,5.577142857,52.09,77.97,71.05,119.21,28.10928246,139.512,91.93,264.64,18.17,599.22,8.7,62.31,2.16,99.48
998.1,29.95,4.273571429,45.08,83.62,9.98,116.64,26.86950454,129.072,86.7,265,16.32,541.97,7.95,43.98,1.79,90.92
1000.49,29.17,2.92,31.04,86.43,0,113.28,25.76294015,25.284,35.14,265,11.53,484.72,5.66,65.65,1.35,61.83
1001.63,29.02,2.33,30.61,86.13,0,110.6,26.12007332,24.744,35.21,265,11.79,480.9,5.88,59.65,1.16,61.09
1002.6,29.16,2.09,34.26,84.35,0,109.8,25.51644224,30.06,43.91,265,12.97,503.8,6.45,51.95,1.12,65.64
1001.98,29.11,3.62,33.99,83.89,0,106.61,26.01010797,52.812,77.22,265,13.51,534.33,6.9,54.36,1.05,59.75
1000.65,28.64,2.33,28.9,85.58,0,115.27,27.64372966,40.056,59.2,264.64,12.02,473.27,6,46.21,0.91,50.03
1003.06,28.55,2.33,28.95,86.52,0,108.83,29.42199577,38.628,56.98,265,11.15,354.95,5.56,36.97,0.85,47.35
1002.66,28.48,2.64,28.51,87.27,0,107.73,29.58567326,41.532,61.03,265,11.46,312.97,5.73,28.87,0.91,46.36
1002.25,28.5,3.04,27.62,87.74,0,108.53,30.32384737,32.532,46.32,265,11.11,267.17,5.5,33.03,1.07,48.92
1002.16,28.46,3.28,25.25,88.26,0,111.84,30.05696052,26.472,36.45,265,11.15,263.35,5.64,36.15,1.12,40.36
1001.01,28.31,3.6,27.57,87.81,0,118.31,28.99406492,35.892,50.73,265,12.14,274.8,6.32,32.65,1.18,42.21
1001.52,28.18,3.93,30.06,88.01,7.79,122.93,28.72191671,41.136,58.45,265,12.56,393.12,6.41,30.03,1.29,49.73
1000.99,28.32,5.19,35.32,87.41,34.68,116.58,26.45393403,44.1,61.18,264.64,12.92,473.27,6.47,29.67,1.29,67.08
1004.61,28.96,6.87,38.74,85.79,116.74,113.23,23.67127267,45.24,60.37,265,13.56,488.53,6.94,29.77,1.24,72.26
1003.83,29.65,12.94,48.27,83.39,213.48,113.04,19.65270055,50.412,59.16,265,23.64,1145,14.5,33.61,1.64,83.53
1004.47,30.03,7.37,57.89,82.27,244.9,113.4,17.54643692,34.776,43.2,265,31.9,1022.87,20.14,33.99,1.71,94.71
1005.87,30.35,8.34,59.12,81.57,299.17,117.95,16.81628879,35.544,42.84,265,33.61,751.88,20.48,30.9,1.78,95.27
1005.53,30.62,13.05,53.59,81.09,348.56,118.94,17.49332492,50.76,59.53,265,28.75,557.23,16.55,29.22,1.84,84.56
1003.68,30.77,13.58,49.43,80.53,382.11,121.39,20.84435778,57.204,68.79,265,22.12,431.28,12.27,30.84,1.93,77.68
1002.83,31.07,17.77,43.42,79.55,461.39,122.8,25.51124919,56.664,61.54,265,20.64,435.1,11.54,40.83,2.08,68.74
1003.44,31.26,15.44,40.23,78.97,434.42,123.02,28.47321369,51.12,56.35,265,18.65,393.12,10.26,33.65,2.27,67.54
1002.73,31.17,13.83,38.49,79.71,326.15,120.82,28.49740233,48.336,54.54,265,16.24,404.57,8.68,25.24,2.16,62.92
1002.3,30.63,7.71,40.53,82.39,186.16,123.88,27.93198558,34.368,42.04,265,16.12,427.47,8.6,34.63,2.37,65.82
1002.73,29.83,5.99,43.18,85.33,56.15,123.91,26.74355761,49.524,68.45,265,16.05,423.65,8.38,28.38,1.98,78.68
1003.95,29.26,4.21,43.91,87.68,3.48,128.25,26.87925821,57.072,82.99,265,14.19,473.27,6.99,22.72,1.65,87.74
1004.41,28.95,3.98,34.27,88.98,0,147.46,26.46630829,35.952,50.26,264.63,13.22,583.95,6.67,30.71,1.87,56.86
1004.94,27.98,2.2,25.09,93.62,0,139.34,26.32494617,16.416,22.37,265,11.97,530.52,6.24,37.04,1.75,37.6
1004.03,27.57,2.28,22.22,88.7,1.01,156.55,28.25980353,20.784,29.09,265,9.97,622.12,5.15,44.9,1.65,40.31
1005.9,27.39,8.19,26.5,90.05,0.1,130.24,29.0817431,41.328,52.2,265,11.09,667.92,5.49,13,1.21,50.53
1005.8,27.39,2.54,26.88,90.61,0,111.49,26.47559986,28.716,41.11,265,10.48,591.58,5.15,22.67,1.02,49.25
1005.66,27.37,15.97,29.36,95.81,0,107.23,24.51133541,52.668,58.07,265,11.55,374.03,5.56,14.03,0.9,49.76
1005.1,27.32,14.77,26.67,95.26,0,101.76,23.35310154,44.916,47.75,265,10.43,309.15,5.16,21.08,1,45.63
1002.92,27.32,2.88,24.32,86.21,0,114.01,21.65095318,37.5,54.37,265,8.5,362.58,4.27,29.05,1.15,42.45
1003.99,27.45,2.5,24.83,78.22,0,110.43,22.46284705,36.672,53.66,265,7.88,404.57,3.84,38.94,1.06,48.81
1004.07,27.44,3.09,31.42,78.32,0,140.52,24.06745782,52.608,77.72,265,9.67,461.82,4.73,31.15,0.75,60.91
1003.63,27.08,5.25,31.48,82.61,5.03,148.17,26.06949573,50.748,71.48,265,10.5,561.05,5.06,29.8,1.12,59.08
1003.19,27,2.5,22.87,84.68,26.15,110.19,26.76088212,23.676,33.29,265,7.99,587.77,3.89,45.21,1.17,43.58
1005.49,27.65,5.4,30.57,82.79,161.91,109.93,27.92494268,34.26,45.42,265,8.84,736.62,4.15,43.1,1.26,62.82
1006.89,29.38,6.13,25.48,70.95,405.45,103.52,27.86922687,30.204,37.95,265,7.66,656.47,3.77,57.63,1.26,53.47
1005.36,30.64,6.76,22.84,62.45,558.64,111.24,25.47385839,34.152,43.16,264.63,7.09,580.13,3.59,70.73,1.6,45.99
1005.65,31.23,9.23,28.9,62.19,711.63,131.63,24.2803375,48.288,61.53,265,8.65,645.02,4.35,79.93,2.48,59.71
1005.66,31.43,6.09,30.03,65.37,825.34,133.04,24.2803375,35.1,45.69,265,9.46,606.85,4.61,104.9,2.78,60.57
1006.68,31.39,5.09,29.91,66.72,855.55,137,23.16261233,27.888,35.89,265,10.47,509.53,4.88,114.41,2.88,54.59
1004.73,32.53,2.17,29.44,60.91,547.82,135.16,22.73245789,39.204,58.1,265,11.09,526.7,5.27,143.3,3.17,60.93
1004.41,32.56,2.72,25.77,60.23,449.7,136.07,23.60143192,28.512,40.52,265,8.59,530.52,4.08,137.58,3.12,57.56
1004.01,31.75,2.85,24.61,66.65,254.11,130.99,25.41898482,20.964,28.47,265,7.58,522.88,3.57,112.18,2.77,52.74
1004.19,30.52,2.23,24.05,75.17,79,131.27,26.04917926,18.504,25.59,265,7.85,507.62,3.75,86.96,2.6,51.74
1004.44,29.39,4.49,26.96,82.73,12.26,134.56,17.27,42.648,59.97,265,9.27,496.17,4.59,52.26,2.53,51.33
1005.15,28.71,5.1,24.26,87.19,0,139.71,25.01,49.212,69.33,265,9.59,431.28,4.84,40.5,2.92,42.81
1005.36,28.64,6.75,24.19,87.59,0,133.08,27.79,48.384,65.48,265,9.5,374.03,4.8,32.19,2.32,43.61
1006.3,28.6,8.04,22.14,88.13,0,132.8,23.61,39.6,49.73,265,8.83,366.4,4.42,31.38,2.03,38.25
1007.81,28.51,1.94,19.08,88.41,0,131.94,8.86,11.124,14.46,265,7.75,354.95,3.97,40.8,1.93,34.27
1007.97,28.41,2.08,19.86,88.87,0,129.84,10.9,12.36,16.16,265,7.55,354.95,3.77,39.72,1.5,35
1007.74,28.35,1.92,20.53,89.14,0,126.83,9.57,12.156,16.11,265,7.25,347.32,3.53,42.35,1.28,35.21
1005.47,28.23,1.88,20.06,89.31,0,127.53,8.89,10.056,12.87,264.51,7.33,351.13,3.6,46.85,1.37,35.71
1004.94,28.17,2.01,21,90.05,0,127.2,10.63,12.336,16.26,264.51,8.08,324.42,4.01,44.8,1.58,35.69
1006.65,28.04,5.52,23.4,91.36,0,118.13,20.27,39.816,53.93,265,9.19,290.07,4.54,25.19,1.44,37.48
1006.83,27.93,19.02,26.02,91.07,0,114.31,30.15,70.428,81.2,265,9.89,297.7,4.9,11.43,1.34,44.38
1007.63,27.82,32.95,27.94,91.78,0.44,118.65,36.07,78.9,73.12,265,10.99,404.57,5.55,11.39,1.22,48.51
1007.55,27.65,24.13,26.73,94.05,19.91,128.74,25.8,56.136,50.96,265,11.35,603.03,6.01,18.89,1.34,48.11
1007.2,28.09,5.21,26.95,91.84,86.75,131.83,12.27,21.456,25.62,264.7,9.47,618.3,4.72,30.17,1.62,50.24
1008.85,28.65,4.65,24.64,88.33,106.72,140.66,8,17.328,20.03,264.69,8.53,454.18,4.16,35.16,1.96,45.1
1010.56,28.78,4.88,26.33,88.04,93.63,145.04,6.53,19.488,23.07,265,8.95,450.37,4.35,35.88,1.55,49.24
1009.48,29.05,5.16,26.44,85.97,112.75,145.99,5.97,20.856,24.78,264.68,9.22,561.05,4.49,39.5,1.62,50.67
1007.68,29.23,4.13,24.56,84.45,152.66,142.4,4.74,17.088,20.46,264.68,9.32,515.25,4.61,43.38,2.24,44.34
1009.24,29.67,3.49,23.23,82.83,217.61,142.92,3.41,12.768,14.67,265,8.59,377.85,4.24,49.19,2.29,39.67
1005.78,30.08,3.67,21.67,80.49,264.66,138.49,3.03,11.796,12.88,265,8.27,358.77,4,54.15,2.38,36.97
1006.41,30.17,3.78,22.74,80.29,223.52,140.95,3.26,13.176,14.86,265,8.4,396.93,4.12,52.08,2.43,39.59
1006.97,29.93,3.49,23.1,81.2,149.94,141,3.25,14.34,17.14,265,8.09,393.12,3.9,48.62,2.37,44.34
1003.86,29.67,4.34,26.35,81.15,103.21,142.77,3.08,17.904,21.41,264.64,8.27,454.18,3.79,43.67,2.02,57.13
1005.15,29.22,3.52,27.08,83.17,32.69,143.38,3.48,19.824,25.68,264.64,8.08,515.25,3.76,38.27,2.01,58.11
1005.33,28.67,2.93,25.34,85.6,4.96,140.24,3.92,19.404,25.92,265,8.41,503.8,4.04,34.34,1.84,51.36
1004.45,28.17,2.69,21.09,87.68,0,138.87,3.73,15.636,20.39,265,7.34,465.63,3.57,33.87,1.81,37.99
1006.61,27.96,2.54,18.79,89.62,0,137.65,3.52,14.64,19.07,265,7.4,412.2,3.69,34.1,1.89,33.72
1008.84,28.04,2.14,18.97,89.59,0,137.26,3.37,13.944,18.58,265,7.61,385.48,3.82,36.48,1.87,32.79
1009.35,28.06,2.79,19.04,89.34,0,136.5,3.35,13.704,17.19,265,7.27,370.22,3.62,35.97,1.52,33.61
1009.4,27.9,2.58,16.97,89.82,0,135.43,2.78,13.104,16.56,265,6.49,332.05,3.13,33,1.22,30.32
1008.88,27.58,2.1,17.21,91.32,0,116.41,2.91,13.212,17.5,265,6.27,316.78,2.96,29.18,0.95,29.79
1008.33,27.19,2.07,17.53,93.48,0,85.04,6.44,15.78,21.56,265,6.09,351.13,2.88,24.83,0.55,30.86
1006.63,27.08,1.99,18.72,93.73,0,71.16,8.63,17.436,24.27,265,6.9,328.23,3.23,23.71,0.44,33.72
1008.51,27.14,1.93,20.61,93.47,0,176.13,9.84,21.912,31.37,265,7.44,347.32,3.53,22,0.72,36.88
1008.63,27.3,1.95,22.23,91.51,0,109.44,9.18,18.312,25.68,265,7.37,358.77,3.44,25.8,0.85,41.6
1007.7,27.29,4.11,22.44,91.15,4.44,110.62,13.61,25.152,33.1,265,8.03,389.3,3.94,26.14,1.44,39.82
1007.16,27.18,10.09,26.62,91.01,17.7,117.7,19.32,43.812,53.19,264.64,8.63,622.12,4.18,18.56,0.66,53.31
1007.84,27.79,17.76,30.2,89.29,98.4,88.46,17.51,50.256,51.35,264.64,8.89,683.18,4.34,19.65,0.59,62.24
1009.61,28.61,13.98,31.32,86.78,160.56,96.08,15.01,38.556,38.94,265,9.62,526.7,4.69,28.89,0.76,64.23
1008.37,28.96,8.64,33.17,86.16,224.13,122.21,12.92,29.052,32.27,264.64,9.6,530.52,4.39,36.37,1.22,66.64
1006.81,29.74,6.84,29.2,83.43,439.43,137.92,10.58,21.816,23.7,264.64,9.18,499.98,4.23,50.82,1.78,57.96
1006.19,30.85,3.25,22.71,78.02,759.29,144.35,4.72,10.488,11.46,265,8.72,450.37,4.08,75.75,2.48,40.18
1006.58,31.82,2.51,22.75,74.02,756.23,137.62,4.05,9.9,11.67,265,8.76,423.65,4.09,88.37,2.2,42.64
1006.81,32.46,5.15,25.05,73.58,667.79,127.21,7.45,17.868,20.1,265,9.01,393.12,4.26,80.95,2.21,48.82
1005.97,32.37,2.9,23.81,74.29,572.09,136.27,5.77,10.392,11.84,265,8.86,393.12,4.14,81.87,2.71,45.97
1005.45,32.08,3.49,25.88,74.54,427.51,134.1,7.68,14.64,17.6,265,8.74,389.3,3.92,79.08,2.75,48.84
1003.8,31.15,6.86,26.68,77.19,231.91,136.49,20.86,32.196,39.93,265,8.87,458,4.06,63.29,3.07,50.28
1005.01,30.25,7.63,26.73,81.01,80.93,138.95,27.27,39.504,50.2,265,9.5,503.8,4.59,52.32,2.89,51.23
1005.33,29.31,2.8,23.57,85.12,13.18,139.96,10.99,18.528,24.75,265,8.46,454.18,4.19,55.46,2.73,44.06
1005.89,28.83,2.06,20,88.14,0,143.1,6.02,13.692,18.3,265,7.9,419.83,3.91,55.71,2.7,36.24
1006.59,28.68,2.13,18.25,88.8,0,138.59,5.28,11.22,14.32,265,7.51,419.83,3.75,54.89,2.22,31.98
1007.27,28.58,6.31,23.44,89.13,0,126.76,10.19,35.844,46.5,265,8.72,458,4.46,37.63,1.36,45.78
1007.82,28.62,6.84,23.68,88.79,0,135.8,10.46,37.62,48.47,265,9.7,446.55,5.04,35.52,1.45,39.79
1007.93,28.38,2.12,24.28,88.75,0,135.73,4.58,14.22,19.01,265,9.06,381.67,4.4,45.71,1.37,44.42
1007.26,28.02,1.95,21.06,89.34,0,123.5,3.38,14.1,19.05,265,7.91,339.68,3.83,42.28,1.29,38.1
1006.37,27.59,2.04,19.38,91.12,0,114.34,7.21,15.48,21.1,265,7.35,354.95,3.73,35.06,1.05,34.67
1004.5,27.24,2.62,21.89,91.51,0,101.93,5.69,20.604,28.27,265,7.76,278.62,3.86,27.91,0.78,40.25
1003.17,27.21,3.1,23.75,90.32,0,92.66,8.43,31.548,44.69,264.64,8.56,236.63,4.18,21.44,0.68,46.66
1003.6,27.21,2.77,23.78,89.11,0,91.93,10.47,29.1,41.36,264.64,9.37,232.82,4.65,22.97,0.68,43.92
1005.68,27.22,2.81,24.41,89.11,6.52,92.81,10.77,28.296,40.05,265,9.26,270.98,4.52,23.1,0.52,44.49
1007.83,27.7,10.54,29.83,87.8,61.96,105.1,15.32,40.392,47.14,265,10.18,362.58,4.83,20.17,0.74,58.11
1007.32,28.44,14.21,28.44,85.75,169.25,112.91,16.53,39.168,39.6,265,9.65,377.85,4.65,24.64,1.19,55.62
1009.37,29.27,9.26,24.95,82.6,265.83,126.25,13.4,24.984,24.96,265,8.6,362.58,4.12,36.66,1.96,46.18
1008.36,29.86,4.1,21.39,78.48,311.17,140.44,4.51,11.46,11.69,264.62,7.47,328.23,3.6,50.25,2.69,38.43
1008.29,30.21,4.13,22.48,77.48,289.2,141.98,3.53,12.54,13.32,264.62,7.79,332.05,3.71,55.04,2.64,40
1009.23,30.56,3.75,22.89,77.06,364.02,134.6,3.39,11.088,11.62,265,8.31,354.95,4.02,58.37,2.22,43.06
1008.4,30.63,2.88,22.14,77.14,285.66,132.11,3.84,8.364,8.68,265,8.46,332.05,4.24,61.36,2.13,41.73
1007.79,30.45,2.7,22.13,78,244.57,133.06,4.22,8.184,8.69,265,8.12,320.6,4.13,59.27,2.18,41.65
1007.02,30.83,2.89,24.99,76.49,344.72,131.54,5.77,9.108,9.86,265,8.46,343.5,4.27,59.7,2.2,47.6
1006.3,30.87,3.46,26.05,74.91,292.41,133.33,6.68,11.808,13.21,265,8.74,332.05,4.33,61.02,2.47,47.64
1005.92,30.4,4.08,25.4,75.99,187.23,138.41,6.15,14.64,16.69,265,8.15,366.4,4.07,56.49,2.82,45
1005.9,29.77,3.09,23.8,78.33,78.9,139.99,6.38,15.72,19.91,265,8.28,404.57,4.16,50.93,2.68,45.41
1006.43,29.06,2.17,26.03,80.52,17.86,134.99,8.57,19.872,27.82,265,8.47,412.2,4.14,43.45,1.98,47.83
1005.62,28.51,3.31,28.4,82.76,0,121.76,12.39,34.356,48.77,264.64,9,419.83,4.27,30.72,1.28,53.73
1006.15,28.07,9.47,31.41,85.95,0,107.06,16.37,58.272,76.8,264.64,10.24,408.38,4.88,16.06,0.93,59.08
1006.52,27.65,7.83,26.64,88.22,0,100.49,16.3,49.236,65.16,264.63,9.45,400.75,4.63,17.14,0.8,47.7
1005.56,27.69,3.06,25.05,87.72,0,98.95,9.9,22.428,30.45,264.26,9.07,354.95,4.65,29.21,0.69,44.69
1008.16,27.76,2.33,22.48,87.92,0,108.31,6.74,14.88,19.74,265,8.53,282.43,4.39,34.47,0.75,39.58
1007.8,27.57,1.68,19.01,89.18,0,107.86,5.75,12.312,16.71,265,7.44,244.27,3.74,35.65,0.66,32.84
1007.47,27.6,1.97,18.64,89.62,0,94.78,7.4,11.328,14.72,265,7.23,248.08,3.61,37.66,0.66,34.24
1007.01,27.72,2.28,18.65,89.2,0,93.8,6.99,12.828,16.62,265,7.55,236.63,3.71,37.98,0.67,34.59
1006.66,27.79,2.1,21.32,88.21,0,91.11,7.48,20.484,28.88,265,7.96,225.18,3.87,34.82,0.65,39.58
1005.37,27.78,2.94,20.66,87.51,0,104.98,9.32,19.644,26.28,265,7.69,251.9,3.8,36.42,0.71,39.55
1005.71,27.61,4.79,23.11,87.83,3.03,124.08,19.38,32.712,43.93,265,8.25,366.4,4.13,27.93,0.95,44.23
1006.5,27.63,4.68,30.04,87.24,21.72,95.23,13.84,28.788,37.95,265,8.69,492.35,4.23,31.09,0.71,65.72
1008.76,28.26,8.93,34.45,85.34,77.96,103.3,18.51,35.964,42.69,265,9.32,576.32,4.53,31.26,0.81,78.63
1009.33,29.07,19.22,30.67,83.14,303.38,130.32,26.34,50.568,49.77,265,9.46,477.08,4.64,31.76,1.8,62.17
1008.24,29.92,22.7,27.33,79.94,396.06,139.57,27.91,51.168,45.36,265,8.86,393.12,4.27,41.21,2.34,54.79
1008.23,30.19,4.84,19.63,78.73,381.13,141.15,8.76,15.42,16.75,265,6.82,320.6,3.28,61.13,2.69,40.09
1009.34,30.3,3.81,19.79,78.72,391.12,143.89,4.58,12.492,13.73,265,6.97,305.33,3.33,63.67,2.69,38.69
1008.75,30.52,3.51,18.17,78.47,443.5,140.63,3.31,9.612,9.67,265,6.91,286.25,3.26,64.42,2.71,31.77
1006.27,30.56,3.51,17.7,78.21,436.01,136.23,3.12,8.124,7.34,265,6.54,278.62,3.13,63.34,3.1,29.56
1005.6,30.02,3.47,19.56,80.35,310.16,136.15,3.69,9.708,9.89,265,6.4,282.43,3.07,58.75,3.3,36.65
1006.46,29.47,3.68,18.83,82.48,203.33,137.05,5.26,11.196,11.91,265,6.26,305.33,3.04,56.15,3.47,36.24
1004.69,29.28,3.42,19.9,82.44,145.9,136.06,5.09,12,13.56,264.63,6.46,324.42,3.13,52.48,3.08,39.55
1004.76,29.07,2.98,20.79,82.12,54.51,136.86,5.18,14.016,17.4,264.63,6.88,347.32,3.32,47.97,2.59,43.47
1006.94,28.8,2.88,22.09,82.59,9.62,133.02,5.27,17.832,23.53,265,7.19,366.4,3.52,42.26,1.91,45.13
1006.66,28.37,3.69,21.69,83.57,0,130.01,5.44,23.424,31.06,265,7.15,393.12,3.44,35.44,1.37,44.86
1007.98,28.19,8.43,21.53,85.49,0,162.15,7.91,31.38,36.25,265,7.54,461.82,3.62,30.85,1.25,40.15
1010.49,27.84,9.31,24,89.07,0,163.89,7.02,36.924,43.6,265,8.74,526.7,4.33,25.18,1,48.45
1008.56,27.12,6.83,19.7,92.51,0,108.53,6.46,34.02,42.83,265,7.36,419.83,3.58,21.81,1.01,37.86
1004.94,26.86,3.53,13.73,91.1,0,120.37,9.83,22.944,30.55,264.26,6.1,305.33,3.08,26.13,1.2,23.5
1007.75,26.75,6.41,18.9,91.61,0,115.19,20.58,43.884,58.95,264.63,7.1,290.07,3.55,14.72,0.77,33.7
1009.5,26.91,20.62,24.28,90.8,0,115.66,20.14,63.072,67.21,265,7.97,312.97,3.8,11.35,0.59,46.63
1005.92,27.12,8.8,23.01,90.87,0,107.6,14.69,40.44,49.88,264.63,7.45,400.75,3.49,19.35,0.77,42.79
1004.73,26.97,3.13,17.79,92.89,0,125.86,11.78,22.368,30.22,264.63,6.87,324.42,3.39,25.96,0.95,30.57
1007.52,26.9,11.21,19.38,93.12,0,86.74,16.78,49.14,59.77,265,7.73,305.33,3.84,15.85,0.65,33.01
1004.93,26.88,13.09,20.78,91.23,4.58,90.72,21.1,54.408,65.21,265,7.97,328.23,3.95,18.39,0.56,35.95
1006.54,26.8,12.86,28.07,90.85,29.66,151.92,22.43,48.984,57.04,265,9.05,480.9,4.24,22.08,0.83,52.76
1009.09,27.39,45.04,39.66,87.03,217.73,222.96,27.16,87.576,68.18,265,11.78,1103.02,5.43,21.93,1.48,85.3
1009.87,28.72,57.25,32.88,68.15,477.3,212.72,34.28,118.548,98.01,265,10.33,1564.83,5.22,39.55,1.7,74.52
1010.34,29.43,48.31,21.4,60.03,644.43,183.29,14.69,100.776,83.86,265,7.2,625.93,3.92,63.41,2.06,46.63
1010.54,29.67,4.1,13.22,61.61,700.78,154.12,8.32,20.136,25.26,265,4.33,499.98,2.18,102.55,2.21,27.44
1010.22,29.83,3.35,15.28,65.34,421.33,152.96,8.45,19.176,24.92,265,5.09,564.87,2.48,106.27,2.22,28.04
1009.28,29.81,2.86,13.75,69.57,387.18,153.89,6.27,14.508,18.35,265,5.35,606.85,2.54,100.03,2.3,25.13
1006.89,29.76,2.6,15.45,73.34,280.91,145.5,4.94,14.016,17.96,264.63,6.2,370.22,2.87,87.43,2.75,28.51
1007.33,30.2,6.94,18.46,74.66,353.64,145.39,4.79,19.428,19.79,265,7.23,480.9,3.64,60.64,3.52,33.84
1006.91,30.01,6.59,21.4,75.73,191.58,140.43,5.36,20.076,21.38,265,8.91,511.43,4.78,52.77,3.23,40.31
1005.34,29.63,3.11,18.74,76.7,135.45,141.5,3.38,12.444,14.75,264.63,6.49,297.7,3.22,46.53,3.07,36.16
1006.66,29.27,2.68,18.79,78.1,58.82,137.68,4.03,13.776,17.48,265,6.27,328.23,3.09,43.36,2.69,36.23
1007.12,28.78,3.07,17.97,80.33,9.24,136.52,6.26,15.48,19.56,265,5.94,362.58,2.93,40.59,2.36,35.03
1007.99,28.44,2.95,15.76,81.99,0,136.76,6.05,13.68,16.92,265,5.63,347.32,2.78,40.41,2.16,30
1007.62,28.23,2.75,14.12,83.31,0,137.12,4.53,12.768,15.8,265,5.62,316.78,2.86,39.77,2.26,25.3
1006.89,28.09,2.95,14.05,83.84,0,138.18,4.01,12.276,14.72,264.64,5.53,316.78,2.82,39.17,2.21,24.56
1007.28,28.13,2.93,14.14,83.66,0,133.71,5.44,11.76,13.96,264.27,5.62,305.33,2.81,39.73,1.82,24.3
1005.95,28.14,2.19,13.19,83.72,0,134,3.41,6.912,7.48,264.26,5.47,225.18,2.71,42.9,2.15,21.83
1008.59,27.88,1.65,12.81,87.19,0,140.07,2.02,5.088,5.43,265,5.35,206.1,2.63,41.67,2.4,22.57
1009.47,27.47,2.02,12.64,89.71,0,135.68,2.35,6.264,6.69,265,5.2,217.55,2.6,37.71,1.82,21.85
1008.81,27.56,2.12,14.67,88.12,0,125.82,4.11,6.948,7.63,265,5.37,232.82,2.63,36.96,1.47,24.11
1008.61,27.58,2.62,16.62,87.98,0,118.57,5.3,7.812,8.22,265,5.87,251.9,2.84,35.7,1.07,27.6
1007.26,27.35,2.88,16.75,90.01,0,96.47,5.3,15.276,19.54,265,6.6,282.43,3.25,28,0.59,29.78
1009.03,27.3,4.24,19.91,91.26,1.75,100.89,8.24,23.076,29.67,265,7.2,423.65,3.6,24.23,0.61,36.71
1009.54,27.36,4.37,20.26,91.38,7.17,105.75,9.53,25.128,32.69,265,7.44,492.35,3.67,24.49,0.74,39.24
1010.29,27.26,5.96,19.12,93.41,22.26,106.77,8.53,27.948,34.66,265,7.49,538.15,3.75,23.9,0.8,37.16
1011.03,27.13,8.2,14.4,96.85,61.73,122.94,4.47,28.02,31.35,265,6.74,461.82,3.46,27.97,1.33,25.12
1009.98,27.77,6.04,13.93,94.74,151.51,138.37,2.8,18.768,20.14,265,6.26,461.82,3.12,35.04,1.94,23.87
1009.65,28.56,5.93,18.19,90.52,189.2,151.89,2.9,17.124,17.74,265,6.55,614.48,3.09,40.15,2.55,32.93
1009.01,28.43,4.63,15.86,90.15,231.03,146.55,2.36,12.264,12.14,265,6.65,469.45,3.11,47.03,2.95,25.86
1009.45,27.43,3.62,13.07,96.38,235.7,132.39,1.88,9.672,9.61,265,6.49,564.87,3.3,45.46,2.01,22.83
1008.88,28.06,4.01,13.68,90.32,233.79,130.89,4.6,12.324,13.15,265,5.78,469.45,2.99,50.64,2.4,27.01
1008.24,27.17,4.05,11.28,83.23,224.57,117.91,6.58,16.548,19.72,265,4.03,354.95,2.07,70.16,2.17,21.82
1007.5,28.04,5.77,12.36,78.33,327.6,112.41,11.16,21.972,25.59,265,4.2,312.97,2.16,67.21,1.77,24.59
1006.98,28.39,6.6,17.18,80.45,196.65,115.98,15.8,31.404,39.09,265,5.28,297.7,2.59,49.91,1.74,33.12
1007.23,27.71,4.77,21.89,85.15,27.26,121.49,17.74,45.048,63.29,265,6.33,385.48,3.04,34.17,1.46,39.06
1007.92,26.57,3.69,18.61,90.38,0.61,125.25,11.79,39.288,55.93,265,5.8,511.43,2.79,42.77,1.32,36.73
1007.85,25.21,1.93,11.14,94.21,0,127.64,3.98,20.664,29.43,265,4.32,435.1,2.19,58.71,1.35,22.79
1008.43,25.82,3.1,14.21,97.57,0,124,4.77,33.096,47.13,265,5.62,507.62,2.75,32.4,1.15,26
1007.85,26.53,4.1,16.12,98.99,0,118.5,6.58,39.504,55.61,264.63,6.47,507.62,3.16,18.31,1.04,26.54
1007.47,26.56,2.98,14.78,98.63,0,100.48,6.18,25.836,35.92,264.26,5.95,419.83,2.93,23.73,0.73,25.53
1010.65,26.81,2.02,14.24,98.1,0,99.74,6.68,17.844,24.86,265,5.67,362.58,2.84,28.65,0.66,23.99
1010.05,26.92,1.94,15.67,97.6,0,100.96,7.28,14.1,19.12,265,5.63,354.95,2.8,30.47,0.66,27.46
1009.4,27.03,1.62,15.25,96.38,0,119.26,6.31,10.44,13.88,265,5.61,347.32,2.8,31.14,0.5,27
1008.89,26.93,2.01,15.39,96.49,0,93.49,8.17,10.716,13.7,265,5.69,370.22,2.92,29.44,0.44,25.33
1007.01,26.79,1.94,15.49,96.38,0,81.97,8.09,9.204,11.46,265,6.12,332.05,3.08,31.81,0.45,26.46
1006.83,26.72,2.65,17.42,95.92,0,85.91,6.29,9.06,10.13,265,6.69,305.33,3.35,32.81,0.47,29.61
1008.34,26.78,2.98,18.87,96.01,5.3,96.52,6.12,14.364,17.91,265,6.93,450.37,3.49,30.16,0.54,33.44
1008.72,27.07,3.09,17.25,95.45,39.73,103.31,6.33,12.012,14.05,265,6.69,393.12,3.42,33.24,0.65,31.03
1008.01,27.54,4.91,18.66,94.04,94.92,110.88,7.18,16.968,19.06,265,6.83,416.02,3.41,32.72,0.9,33.87
1009.85,28.49,7.41,22.02,91.35,201.47,120.26,10.76,22.656,24.14,265,7.36,519.07,3.54,37.67,1.37,40.55
1009.99,29.34,5.17,21.31,86.41,315.35,144.33,5.34,15.864,16.92,265,7.37,522.88,3.6,54.3,2.24,39.68
1009.69,30.24,4.27,18.74,81.43,554.2,148.2,2.53,11.856,11.99,265,7.1,419.83,3.49,64.45,2.77,33.42
1008.96,30.81,3.3,17.7,79.23,600.5,142.78,2.02,8.856,8.82,265,7.16,370.22,3.45,68.67,2.77,32.59
1007.98,31.04,2.73,18.81,78.95,543.65,139.4,2.24,6.036,5.27,265,7.37,335.87,3.59,71.3,2.78,33.64
1006.95,31.2,2.7,17.2,78.62,562.59,141.5,2.66,6.252,5.66,265,7.44,316.78,3.72,72.64,3.22,29.88
1006.1,31.11,2.45,17.36,78.57,482.89,141.25,3.04,7.02,7.25,265,7.6,320.6,3.85,73.86,3.37,29.57
1005.51,30.71,2.29,19.07,79.65,313.16,138.87,3.74,7.488,8.22,265,7.59,335.87,3.8,73.89,3.26,33.72
1005.07,30.3,2.32,20.29,81.35,189.18,137.98,4.4,8.412,9.63,265,7.6,362.58,3.8,70.43,3,39.22
1004.9,29.68,2.21,19.28,84.12,68.19,135.39,4.65,10.38,12.85,265,7.5,381.67,3.77,64.1,2.74,33.53
1005.32,28.97,2.57,21.28,86.96,14.02,130.89,11.03,13.26,16.82,265,7.37,419.83,3.69,57.3,1.95,38.43
1006.11,28.47,2.65,20.74,88.64,0,122.03,13.77,13.056,16.4,265,7.44,450.37,3.7,53.62,1.46,37.65
1006.78,28.05,4.38,25.84,91.31,0,107.35,14.36,36.432,50.38,265,8.67,473.27,4.3,33.1,0.96,49.84
1007.37,27.76,4.25,24.36,93.04,0,100.18,9.52,29.496,39.71,265,8.46,427.47,4.31,33.38,0.69,46.47
1007.96,27.78,2.7,20.54,91.77,0,104.21,5.25,9.06,10.06,265,7.63,377.85,3.91,45.29,0.58,38.09
1008.93,26.85,1.97,76.77,91.51,0,173.27,8.41,12.6,16.73,264.84,11.44,400.75,4.2,60.1,2,109.78
1009.45,23.4,1.75,73.54,97.86,0,293.49,12.27,16.512,23.21,264.67,13.49,496.17,5.31,98.07,3.42,103.98
1008.16,22.11,1.61,6.16,99.86,0.18,314.81,6.84,6.096,7.08,264.73,3.09,435.1,1.68,113.93,3.11,13.46
1005.04,21.81,1.78,8.31,99.66,0.32,171.42,5.64,15.528,21.61,264.63,3.45,572.5,1.73,108.88,2.22,14.9
1006.11,23.26,2.05,12.62,95.69,0.25,131.76,13.63,38.208,56.76,265,5.44,683.18,2.66,78.46,2,21.49
1006.23,24,1.95,19.3,91.27,0.14,116.98,16.07,65.868,100.25,265,7.09,545.78,3.6,52.87,1.37,36.53
1005.4,24.34,3.41,26.71,87.6,0.87,189.34,23.45,86.412,130.21,264.63,8.69,587.77,4.35,39.31,1.05,49.96
1006.91,23.68,1.51,46.99,92.74,1.99,297.86,21.5,49.476,75.24,264.66,11.71,652.65,6.13,58.92,3.25,71.53
1008.09,21.92,7.53,50.19,99.61,4.16,209.72,10.48,49.188,65.54,264.42,7.81,519.07,4.16,84.96,3.27,60.21
1008.98,21.67,8.11,0.55,100,36.11,124.04,6.16,41.52,52.62,264.95,0.06,564.87,0.06,85.93,0.93,0.65
1009.42,22.07,1.11,0.56,100,57.71,240.06,9,16.596,24.3,264.84,0.06,709.9,0.06,89.13,1.05,0.65
1010.43,22.63,1.64,22.57,99.81,27.05,281.28,12.86,23.244,33.91,264.84,22.87,728.98,21.71,79.06,1.96,23.16
1009.96,22.78,1.61,39.91,99.59,46.76,168.86,12.39,25.452,37.41,264.94,40.62,774.78,39.86,76.95,1.06,40.68
1008.02,23.47,3.51,17.33,98.71,155.9,121.72,10.42,25.788,35.02,264.94,17.71,759.52,16.64,76.09,1.03,18.02
1007.03,24.46,4.94,7.18,94.28,226.84,102.13,11.96,31.74,42.18,265,7.61,755.7,6.7,80.27,0.95,8.33
1005.81,24.99,9.94,13.73,90.44,95.99,106.18,16.01,53.052,67.92,265,14.53,744.25,14.16,75.25,1.07,14.76
1003.68,24.94,10.41,25.68,90.16,108.73,103.67,22.45,48.984,60.83,265,26.47,645.02,24.03,78.84,1.31,26.75
1003.76,25.12,1.98,65.52,89.02,59.31,98.14,11.75,23.172,33.27,264.95,65.49,683.18,42.55,82.84,0.73,76.58
1005.38,25.2,2.17,62.14,90.79,38.6,137,9.49,27.936,40.37,264.78,61.79,835.85,40.33,72.21,0.84,73.87
1006.23,25.04,1.97,18.94,92.88,15.95,128.24,12.4,43.212,64.69,264.75,14.35,1129.73,12.08,50.53,0.57,26.85
1007.29,24.71,1.39,11.63,95.44,0,78,11.14,44.316,67.35,265,4.53,1568.65,2.44,32.93,0.39,19.84
1008.19,24.32,2.46,12.9,97.58,0,191.9,13.86,38.196,56.11,264.95,4.83,1870.17,2.71,25.36,0.68,23.8
1009.17,24.36,3.4,20.11,96.64,0,169.59,19.44,41.604,60.01,264.95,6.66,1431.25,3.33,24.13,0.55,39.93
1010.024086,26.23531698,9.53,25.98,96.95,0,182.8120074,18.4,57.348,75.28,264.63,8.14,1725.13,4.03,15.63,2.307349869,49.61
1007.61,24.55,9.73,25.96,96.77,0,155.17,20.39,55.284,71.74,264.57,8,1881.62,3.95,14,0.47,55.7
1008.67,24.7,12.8,27.51,96.49,0,135.96,18.96,60.864,75.77,264.95,8.66,1992.3,4.31,14.04,0.45,58.18
1007.93,24.88,5.85,24.82,91.48,0,122.18,15.3,45.384,62.15,264.54,7.5,1648.8,3.71,22.3,0.45,51.35
1006.63,24.51,2.37,15.77,86.48,0,228.65,12.33,20.724,28.85,264.42,5.03,999.97,2.49,39.98,1.46,32.84
1009.91,22.84,1.7,9.09,91.77,0,231.45,8.17,5.004,5.24,265,3.3,499.98,1.66,51.93,1.62,18.36
1007.87,22.11,2.11,6.17,95.61,0,177.47,6.98,7.26,8.13,264.63,2.85,522.88,1.49,45.82,1.22,12.13
1007.8,22.16,2.46,7.21,96.06,3.95,225.79,11.13,13.728,17.76,264.63,2.98,694.63,1.58,39.82,1.1,13.81
1010.64,22.32,3.28,13.65,96.35,14.05,260.8,21.61,20.244,26.72,264.89,3.9,782.42,1.96,36.42,1.34,26.82
1011.65,22.37,4.87,16.24,96.05,34.41,213.37,28.07,24.228,30.5,264.95,4.62,816.77,2.23,34.45,1.02,35.11
1009.39,22.47,7.28,14.14,95.95,79.54,151.62,23.63,28.896,34.12,264.84,4.45,820.58,2.15,31.26,0.88,31.27
1008.42,22.96,15.3,15.2,94.86,130.78,161.7,24.11,40.704,40.32,264.39,5.36,870.2,2.66,29.2,0.8,30.39
1009.75,23.33,14.48,22.3,92.86,121.13,231.05,48.15,42.504,44.38,264.93,7.18,965.62,3.16,33.81,0.87,44.32
1009.07,23.8,7.45,18.09,88.6,181.33,217.86,57.14,28.464,33.18,264.62,5.76,870.2,2.59,42.16,0.69,35.03
1010.87,24.58,9.39,22.36,84.9,293.26,187.04,56.49,30.696,33.7,265,6.58,885.47,2.87,47.87,0.79,45.52
1008.18,24.73,8.06,30.56,82.79,187.05,206.61,57.11,33.324,39.87,264.63,8.23,900.73,3.53,51.45,0.84,61.15
1008.73,24.76,9.07,40.7,82.51,139.84,219.26,97.39,40.968,50.29,265,11.13,1049.58,4.51,52.26,0.82,82.33
1008.1,25.25,5.1,25.52,78.97,195.21,211.91,73.29,26.316,33.42,264.69,7.77,847.3,3.26,60.83,0.62,53.98
1007.46,25.76,8.93,24.55,77.75,211.28,162.27,44.32,36.936,44.18,264.16,8.2,1137.37,3.83,55.03,0.92,49.44
1007.17,25.41,8.03,24.61,80.84,71.26,143.04,30.95,43.632,56.09,264.55,8.57,1595.37,4.32,48.94,1.25,50.11
1007.86,24.82,2.88,20.04,84.25,14.72,125.85,24.81,40.764,59.49,265,6.99,1267.13,3.37,40.5,0.94,38.52
1008.62,24.15,3.32,22.14,88.25,0,106.21,19.29,54.9,80.95,264.95,7.64,1232.78,3.69,22.98,0.58,41.17
1009.47,24.04,3.11,19.2,86.49,0,87.27,12.27,42.096,61.22,264.89,6.2,854.93,2.92,26.89,0.44,39.74
1010.24,23.75,2.4,17.49,85.25,0,78.38,11.14,30.816,44.62,264.95,5.1,656.47,2.35,30.51,0.41,37.38
1010.65,23.54,6.687619048,20.28,86.58,0,76.49,25.73,68.484,73.45,265,6.05,633.57,2.75,18.03,0.41,37.71
1010.39,23.75,6.623809524,22.56,84.67,0,131.96,59.63,135.336,88.23,264.95,7.12,488.53,3.3,14.32,0.86,42.54
1010.27,23.6,6.772380952,24.25,85.53,0,183.72,56.88,154.56,83.44,264.95,6.92,515.25,3.1,14.55,1.28,48.51
1010.59,23.34,7.094285714,27,88.55,0,249.68,61.57,146.7,72,265,7.24,591.58,3.21,14.03,1.16,48.91
1009.53,23.09,7.382857143,30.01,89.88,0,132.41,65.31,133.404,66.39,264.89,7.57,599.22,3.41,13.94,0.74,53.46
1007.19,23.08,7.453809524,30.08,88.11,0,111.44,72.71,165.804,68.77,264.57,8.17,610.67,3.81,14.29,0.61,53.92
1004.48,23.11,7.494761905,30.17,86.6,0,147.9,54.11,166.308,75.11,264.62,8.22,618.3,3.86,13.51,0.66,53.97
1008.43,22.91,7.480952381,28.8,88.88,0.56,254.47,51.7,152.7,73.54,265,8.51,751.88,4.02,13.64,0.98,52.19
1009.2,22.92,7.141428571,24.1,87.41,2.96,212.7,38.62,102.9,83.31,264.58,7.21,874.02,3.35,13.16,0.84,47.7
1008.53,22.95,6.996553288,27.35,88.11,18.49,235.27,35.77,103.536,74.53,264.3,7.11,1228.97,3.11,13.61,0.75,54.3
1012.19,23.6,6.70244898,28.88,86.36,130.22,264.74,47.91,89.712,71.03,264.32,7.45,938.9,3.3,18.36,0.76,62.28
1012.68,24.69,6.746371882,38.59,78.73,190.23,213.73,103.18,130.104,89.36,264.54,9.74,977.07,4.19,20.93,0.69,79.8
1012.66,25.35,6.971337868,54.14,75.4,263.32,198.02,137.19,178.656,100.24,264.67,12.58,1728.95,5.09,22.16,0.66,112.36
1012.07,26.55,7.241950113,53.1,70.29,584.65,171.36,93.65,159.24,106.54,264.76,12.93,1839.63,5.36,30.22,0.92,108.22
1011.12,27.59,7.496417234,32.26,63.84,756.33,169.11,64.98,91.608,83.33,264.48,9.59,870.2,4.2,53.74,1.52,63.14
1010.2,28.26,18.21,25.41,61.97,673.51,166.12,36.66,61.632,68.66,264.09,8.15,530.52,3.74,66.24,1.72,47.75
1009.42,28.53,17.65,27.91,61.73,401.61,155.79,30.9,70.092,82.78,264,8.39,572.5,3.89,62.58,1.77,51.99
1007.48,28.2,26.96,33.28,62.06,146.21,159.32,61.38,115.404,139.57,263.84,9.17,645.02,4.35,36.78,1.41,62.91
1005.74,27.74,14.28,34.54,62.95,53.88,168.99,54.36,93.06,123.98,263.73,9.07,713.72,4.18,46.79,1.07,69.75
1007.31,27.59,3.42,33.21,63.29,19.71,133.84,38.72,71.7,107.12,264.05,8.65,866.38,3.82,55.06,0.69,69.3
1009.3,27.21,1.92,41.93,69.39,3.31,116.2,32.35,64.248,97.76,264.01,10.38,1248.05,4.58,58.82,0.45,92.5
1010.19,26.71,1.64,40.61,75.28,0,109.76,20.08,55.932,85.16,264.41,10.28,1137.37,4.7,52.19,0.65,82.78
1009.71,26.22,2.24,32.33,77.82,0,91.81,19.25,58.8,88.75,264.14,9.27,744.25,4.35,37.02,0.52,61.61
1011.77,26.15,1.73,32.87,78.78,0,78.54,17.81,49.812,75.42,264.49,9.07,782.42,4.36,41.03,0.36,69.48
1005.876231,28.20982843,1.79,32,77.08,0,163.2597777,24.15,54.612,82.86,264.44,8.92,717.53,4.26,38.88,0.98195368,65
1010.77,25.94,2.05,24.07,75.95,0,123.76,25.8,50.928,76.69,264.44,7.71,572.5,3.69,43.62,0.64,45.09
1009.1,25.66,1.44,22.18,79.36,0,56.13,32.94,50.904,77.57,264.12,7.37,629.75,3.63,39.33,0.37,42.52
1011.41,25.44,1.88,23.69,83.74,0,81.28,31.4,47.364,71.37,264.54,7.55,656.47,3.9,39.35,0.5,42.1
1010.77,25.08,2.13,21.72,85.96,0,119.04,15.92,28.62,41.6,264.6,7.01,606.85,3.66,44.51,0.8,36.48
1010.52,24.81,2.37,19.71,84.79,0,99.13,8.66,20.976,29.24,264.73,6.97,591.58,3.81,47.75,0.62,36.34
1010.95,24.73,1.68,21.06,82.26,0,85.9,8.78,19.584,28.12,264.73,7.43,606.85,4.19,50.55,0.51,38.9
1010.27,24.72,2.26,31.51,80.27,0.5,163.34,12.26,27.9,40.26,264.62,10.4,801.5,5.59,46.33,0.56,64.95
1012.65,23.31,3.73,31.71,90.23,18.88,216.51,13.3,36.288,51.16,264.74,12.22,889.28,6.31,40.37,0.9,59.44
1013.44,22.46,3.38,19.53,92.72,41.98,156.14,12.04,29.76,41.47,264.91,8.27,1072.48,4.34,50.86,0.69,32.17
1011.13,22.88,4.16,20.9,90.75,84.56,172.28,25.27,28.632,38.49,264.35,7.92,1267.13,4.02,52.78,0.58,38.91
1012.61,23.55,6.15,23.94,90.12,113.98,273.86,32.17,32.376,41.32,264.51,8.61,965.62,4.25,47.29,0.9,44.31
1012.67,23.79,3.84,25.34,88.08,73.73,271.2,23.8,23.46,30.89,264.3,8.76,770.97,4.32,49.15,1.01,48.45
1011.63,24.07,8.21,29.1,85.75,126.21,228.91,46.67,39.996,50.08,264.44,10.12,933.18,4.8,45.99,0.66,59.12
1012.57,25.11,19.92,43.14,78.93,284.22,187.27,81.36,65.412,71.96,264.6,17.46,1064.85,8.96,34.28,0.82,77.31
1011.78,25.5,20.08,32.36,76.65,220.28,130.74,48.72,68.58,76.69,264.78,13.67,931.27,7.23,37.4,0.8,56.61
1010.96,25.43,5.82,26.14,77.32,77.68,103.23,33.8,45.66,62.65,264.91,10.02,809.13,5.43,46.15,0.71,47.02
1010.3,25.45,8.79,30.09,77.41,61.37,95.87,37.23,64.836,88.15,264.77,9.87,721.35,5.24,35.92,0.57,56.6
1009.85,25.43,7.91,28.5,78.76,50.11,93.95,34.34,66.996,92.88,264.62,8.86,694.63,4.62,34.65,0.62,52.77
1009.84,25.2,4.83,26.29,82.02,21.01,88.86,40.21,69,100.75,264.38,8.9,774.78,4.83,31.3,0.59,49.31
1010.08,24.95,2.75,21.92,83.31,10.76,81.88,31.79,46.416,68.54,264.48,8.03,778.6,4.56,39.69,0.58,41.42
1010.57,24.81,1.91,21.63,84.66,0,108.48,16.11,29.916,43.97,264.81,8.05,847.3,4.56,40.23,0.47,41.77
1011.56,24.69,1.23,21.75,86.94,0,220.7,15.22,27.612,41.39,264.62,8.81,874.02,5.19,35.5,0.63,41.79
1008.744546,28.13564142,1.38,21.2,92.34,0,180.0112025,13.62,16.644,23.96,264.86,8.72,770.97,5.09,38.48,1.513209525,36.71
1005.69173,29.65617342,0.9,19.28,97.22,0,161.3201909,14.32,16.536,24.55,265,8.59,709.9,4.93,38.22,3.210061236,32.95
1006.042262,24.09537455,1.06,21.78,97.13,0,135.4750868,16.44,15.888,23.27,265,8.26,698.45,4.59,37.13,0.489907629,38.93
1000.074039,26.96115221,1.63,28.44,96.24,0,125.343539,19.5,29.52,43.78,264.65,8.74,820.58,4.35,27.43,1.329582406,58.15
1006.015139,25.080808,0.93,18.35,98.03,0,210.0962936,20.1,21.612,32.44,264.64,6.64,828.22,3.55,27.29,1.71717593,31.23
1002.357479,26.40042722,0.92,13.09,99.59,0,209.4177785,15.47,15.264,22.5,264.78,5.61,744.25,3.25,30.67,1.813371563,23.14
1003.701046,24.46015475,1.04,12.07,99.44,0,133.4098616,15.24,20.232,30.11,264.78,5.78,828.22,3.38,28.43,0.546402104,20.6
1010.224194,27.81674039,1.66,12.3,99.54,0,119.765542,18.67,25.428,37.28,264.81,5.96,973.25,3.57,23.63,2.351111986,21.23
1007.147507,26.06854099,5.24,15.76,99.62,0.34,175.8376173,32.29,42.984,59.35,264.62,7.52,1228.97,4.48,16.52,1.314681843,28.94
1009.509763,29.39219801,4.86,20.09,99.88,4.36,126.0060333,42.29,41.136,57.02,264.76,9.46,1263.32,5.66,18.55,0.98210874,35.78
1009.49703,23.19013617,4.38,12.7,99.77,12.71,140.3651204,30.43,31.32,42.37,264.4,5.91,1068.67,3.5,22.26,1.904012803,22.01
1008.643349,28.51899179,3.9,9.34,99.76,32.73,158.0805454,26.07,23.148,30.31,264.48,4.15,973.25,2.43,23.9,1.978051622,16.36
1009.340997,29.71456048,7.49,6.25,99.89,105.77,134.0710464,17.28,24.252,26.52,264.55,2.93,912.18,1.69,24.83,0.683914628,12.12
1006.097898,26.28279142,17.2,8.62,98.44,180.76,107.5430572,20.55,41.616,38.84,264.76,3.48,1038.13,1.88,23.44,1.342299678,17.38
1008.301257,25.22784313,40.6,12.26,97.03,152.21,238.2593405,26.74,78.408,60.61,264.69,4.64,1160.27,2.37,19.72,1.266724566,22.38
1010.647731,30.89326588,71.19,12.51,98.2,57.31,64.74539359,25.93,120.936,80.27,264.95,5.28,1045.77,2.49,14.3,2.147988578,22.17
1001.955524,27.27524496,41.35,8.08,99.8,123.1,156.9857044,18.36,88.968,75.89,265,3.71,870.2,1.79,20.81,1.445467143,14.11
1010.662502,28.16693489,24.31,9.09,98.67,169.15,132.8135433,15.75,70.452,73.13,264.94,3.04,755.7,1.43,34.23,0.887875031,16.12
1004.794088,29.64438453,12.53,9.8,95.97,109.17,130.0224049,13.84,57.612,71.09,264.94,2.72,702.27,1.24,45.67,0.832536932,18.68
1003.156838,27.9624173,5.32,7.27,92.9,132.15,149.1245616,11.25,38.592,52.32,264.67,2.44,713.72,1.05,55.24,1.133728301,14.34
1009.767845,28.29809538,4.22,10.29,90.91,71.98,123.1169999,12.12,43.224,61.28,264.54,3.41,790.05,1.49,55.42,2.273596411,19.42
1006.294336,31.70664047,2.31,11.64,93.06,18.18,150.5450398,7.85,48.792,72.94,264.58,3.65,923.63,1.58,45.43,1.153465599,23.77
1002.631463,30.37991737,1.66,13.35,95.55,0,154.4354603,5.91,45.948,69.48,264.42,4.23,1083.93,1.91,36.71,2.186900672,27.13
1005.640682,28.42822857,2.49,17.73,96.34,0,93.6335193,10.43,51.432,76.8,264.95,5.14,854.93,2.34,30.48,2.426639046,32.11
1010.51393,27.98784738,2.14,17.66,95.92,0,96.73814083,14.3,53.94,81.26,265,5.05,706.08,2.27,32.24,2.238029613,33.43
1006.566226,26.2724857,3.94,17.88,96.38,0,129.1064229,11.41,67.44,99.68,264.89,5.12,679.37,2.35,23.14,1.57103903,32.24
1005.009113,30.59869865,28.35,19.71,97.66,0,145.1840806,23,104.28,120,264.83,5.54,725.17,2.61,14.19,1.232020952,33.74
1003.158443,28.42479336,56.23,18.4,97.79,0,185.8693651,35.61,124.704,109.26,264.32,5.75,759.52,2.78,13.01,1.55945269,32.51
1012.588838,26.69633316,50.13,16.44,98.01,0,134.0718401,27.24,112.188,98.97,264.78,5.54,744.25,2.72,12.09,1.136242183,29.36
1008.79013,26.47799121,21.81,15.44,98.43,0,145.1170179,17.71,86.208,101.67,264.83,5.27,645.02,2.61,11.52,1.18250247,27.9
1010.365029,27.17747907,8.06,17.61,98.53,0,88.79638021,14.22,73.644,103.07,264.89,5.61,553.42,2.77,12.52,2.57266415,31.18
1010.316684,28.09186977,5.54,17.88,97.98,0,162.3166816,12.45,66.792,96.18,264.78,6.05,591.58,3.04,14.4,1.438193961,32.17
1009.283275,29.09319291,13.85,18.82,97.76,3.95,146.5579687,15.94,71.844,91.34,264.11,6.47,812.95,3.25,13.22,1.378879429,35.99
1010.721525,28.87503918,20.98,20.3,97.4,21.18,147.9558569,17.84,71.364,79.68,263.64,6.36,1034.32,3.09,13.47,2.409201816,39.34
1012.819998,24.98901265,19.96,19.22,96.79,42.64,137.4080263,16.98,64.26,70.1,264.19,6.21,1057.22,3,15.98,1.5060976,35.15
1005.8203,27.26050505,20.37,18.7,96.73,124.41,72.13079794,14.41,58.98,61.15,264.43,6.27,980.88,2.84,20.44,1.772336396,34.66
1010.550446,25.3777875,19.76,19.27,93.09,356.22,94.70950972,14.49,47.088,43.44,264.35,7.05,671.73,3.34,29.02,0.982363229,32.92
1003.333609,28.27397439,20.63,21.15,90.53,413.29,72.44269409,20.05,48.864,44.93,264.45,6.71,595.4,3.16,32.48,1.077077824,39.72
1006.654566,28.01874185,13.72,20,87.26,629.86,126.4886471,12.05,33.312,31.15,264.47,6.77,507.62,3.13,41.24,1.396933834,35.13
1002.518392,24.09511156,15.96,19.68,86.42,536.17,136.5534104,5.13,39.348,37.19,264.64,7.14,408.38,3.41,35.43,1.08322507,32.28
1004.969996,25.91770733,21.4,21.29,86.37,488.18,205.7346487,9.47,53.208,50.57,264.67,7.32,404.57,3.52,29.66,0.361802835,37.24
1005.302808,29.4105944,28.13,23.39,86.16,370.81,117.7592237,24.11,72.504,70.48,264.46,8.31,442.73,4.09,24.08,1.81362049,42.54
1006.647724,26.59758592,22.39,25.12,87.16,229.51,109.4694758,33.89,70.188,75.66,264.43,8.22,473.27,4,32.34,1.183822122,43.58
1008.713446,28.2851911,4.42,21.5,88.51,170.77,151.1801038,10.9,23.856,30.63,264.35,6.84,461.82,3.21,54.88,1.824175771,37.75
1002.43727,26.51848833,2.95,23.55,91,45.3,175.5325712,8.4,20.628,27.81,264.44,7.88,530.52,3.97,51.31,2.254702145,41.58
1002.177141,24.97752501,2.78,28.48,93.02,9,184.6734037,10.34,31.236,44.69,264.24,11.22,580.13,6.25,42.56,2.731897218,52.14
1009.508399,33.34085711,2.25,26.98,94.07,0,134.8509608,6.55,32.052,46.79,264.73,12.18,522.88,7.18,41.69,0.880782337,48.41
1011.885502,25.84641393,2.86,30.14,94.6,0,152.6142023,9.91,51.504,76.34,264.78,15.34,541.97,9.38,28.27,1.847068676,50.82
1006.452295,27.27994634,4.33,37.99,95.13,0,107.7787059,14.21,65.832,96.56,264.76,20.3,557.23,12.67,20.13,1.226135224,61.43
1006.054066,30.42742524,4.77,32.75,96.02,0,90.36434771,12.68,48.84,69.25,264.95,19.6,515.25,11.99,27.14,1.926307321,50.84
1008.163233,29.15603759,10.34,26.05,97.38,0,119.8739486,21.69,68.484,91.48,264.74,15.27,541.97,9.19,16.29,1.722541921,38.42
1011.809879,24.97196446,11.47,22.85,97.73,0,143.7687102,30.29,79.956,107.71,264.5,12.03,564.87,7.03,10.91,1.316679729,35.78
1010.528358,26.48319778,33.78,28.38,97.59,0,143.0914575,35.89,98.028,101.84,264.66,12.64,541.97,7.14,10.19,1.979199081,46.99
1009.085646,29.87967566,49.8,31.36,97.61,0,191.0991111,37.89,107.604,92.28,264.28,12.73,564.87,7.08,9.98,1.697286633,53.73
1005.786172,24.89574152,12.68,23.77,97.73,0,189.7937128,22.04,54.432,65.88,264.27,10.24,576.32,6,15.73,1.283626818,41.35
1000.442453,28.96069101,2.24,20.85,97.85,0,223.9776088,17.53,30.336,44.13,264.78,9.83,545.78,5.85,24.64,0.654341473,33.91
1005.55789,22.40359196,27.79,30.51,97.26,1.46,126.8790531,41.51,78.144,79.85,264.76,12.84,675.55,7.35,16.94,2.112255369,50.28
1007.500117,23.62839492,58.75,38.86,95.91,25.87,99.08693483,49.67,114.708,89.69,264.31,14.89,916,8.5,12.96,2.423869232,66.3
1003.139675,27.89499639,25.26,29.71,91.84,109.09,165.9315679,38.78,69.852,70.73,264.16,13.12,866.38,7.88,25.62,1.538216174,51.58
1003.670964,26.47748459,12.42,27.92,87.67,163.09,98.29120662,40.79,53.112,64.2,264.16,12.8,748.07,7.69,34.85,1.006789089,49.65
1010.121339,27.50107352,13.61,25.46,84.63,257.53,131.679751,41.46,52.932,61.97,264.25,11.29,618.3,6.8,39.93,1.374900835,44.75
1006.132924,27.8196421,18.15,24.27,80.93,521.01,193.799533,45.98,54.984,58.33,263.96,11.31,530.52,6.73,44.02,1.503796655,39.98
1007.363338,28.19947738,18.41,22.57,76.81,660.54,74.21147327,45.55,54.996,57.91,264.17,10.93,503.8,6.48,52.54,0.766528214,36.09
1007.513302,32.26344715,13.5,21.94,75.07,574.13,112.7742729,31.04,47.82,54.24,264.22,10,450.37,5.93,60.07,0.982260782,34.56
1010.818804,28.94382453,17.12,27.52,74.52,449.2,142.1150169,26.56,60.588,68.71,264.26,11.24,461.82,6.58,52.75,1.974066287,47.88
1007.842264,28.87454198,12.18,25.81,73.81,438.73,121.7814382,21.92,46.644,54.42,263.92,10.9,484.72,6.32,62.8,0.376337902,48.32
999.3509945,28.23798996,5.08,22.62,74.72,227.69,138.3547533,16.03,32.844,43.7,263.69,8.87,469.45,5.03,68.55,2.081875827,42.73
1004.146807,31.71884913,11.39,33.38,79.35,106.19,202.7138419,21.49,64.344,83.38,264.54,11.95,557.23,6.76,44.74,1.32119041,62.97
1011.673783,33.25743408,19.58,40.58,84.04,70.39,61.60228411,29.16,95.664,119.73,264.54,14.55,637.38,8.19,24.2,1.730076687,77.21
1003.966239,25.43974191,27.2,40.76,87.73,13.79,207.4543699,33.22,111.384,132.89,264.5,13.88,637.38,7.81,13.55,1.394675595,77.53
1005.140362,30.18830156,60.95,43.6,89.21,0,106.8221375,45.99,140.16,126.25,264.78,15.16,622.12,8.97,13.2,1.090095231,77.1
1004.696113,25.38097835,39.55,34.61,89.46,0,128.5849667,60.49,124.608,134.67,264.89,14.02,591.58,8.98,16.32,1.368250827,56.45
1003.796436,28.06419861,5.11,25.5,89,0,118.5594658,47.73,74.544,109,264.84,12.22,549.6,8.15,28.17,2.543660447,39.63
1005.995882,23.6780156,2.34,17.53,88.66,0,82.6573844,19.83,28.548,41.16,264.87,10.2,530.52,7.26,50.02,2.494532669,28.45
1006.214973,27.44443274,2.39,16.69,89.13,0,239.4134024,18.93,29.028,41.83,264.73,8.47,515.25,5.94,45.35,1.800311277,27.23
1008.978246,26.71629989,2.96,15.72,90.09,0,215.2578531,19.41,41.424,60.39,264.84,7.12,530.52,4.71,34.5,2.043020543,28.27
1009.155106,28.29197181,2.48,12.43,91.09,0,117.7393076,12.08,30.756,44.41,264.84,5.71,576.32,3.72,35.12,1.800287057,21.59
1006.338143,32.27846738,3.87,13.91,91.06,0,135.2872726,14.45,43.296,61.92,264.84,5.72,553.42,3.37,25.22,2.246844017,22.91
1008.799087,27.34455298,4.65,13.13,91.52,0,230.5492551,19.1,45.06,63.5,264.9,5.85,530.52,3.36,23.12,2.635226643,22.38
1007.869992,25.73293267,3.31,10.7,92.83,0,154.05912,26.29,35.46,50.5,264.84,5.04,557.23,2.91,25.55,2.18469034,20.22
1003.068871,26.49709461,4.67,12.23,93.61,12.35,98.787653,27.11,37.224,51.18,264.84,4.56,603.03,2.54,23.19,2.106187964,23.97
1008.372645,25.56898476,11.86,14.37,92.53,44.21,154.733167,29.15,42.48,48.39,264.84,4.54,690.82,2.37,22.26,1.255682313,29.08
1002.831384,26.23898935,20.81,14.35,92.28,87.93,132.9402071,34.62,55.98,55.82,264.46,4.78,809.13,2.39,20.17,2.365594562,26.39
1009.70319,33.1352433,23.97,13.22,90.37,214.93,109.4773956,28.03,51.96,44.67,264.44,4.21,717.53,1.96,24.16,2.214330585,26.83
1005.734276,24.99725444,26.84,14.8,85.32,320.41,93.83119871,30.09,52.776,41.55,264.22,3.94,641.2,1.82,28.69,2.988729302,32.57
1004.310199,25.17045616,16.72,12.64,79,450.73,126.1740398,31.6,42.168,40.42,263.92,3.22,549.6,1.52,41.65,1.965441778,26.67
1009.431064,24.08704411,16.92,11.98,75.63,459.08,119.0133096,39.76,49.812,52.12,264.43,3.45,519.07,1.65,48.96,2.010890136,24
1009.672738,29.16135869,9.13,9.72,77.38,249.84,139.5864777,29.21,39.696,48.22,265,3.53,480.9,1.77,58.9,1.886906236,20.06
1003.350853,24.65190681,13.49,13.01,78.31,251.73,175.32127,39.51,52.368,61.38,265,4.01,488.53,2.09,50.22,0.919664353,29.53
1004.447749,30.23518395,15.29,13.04,77.33,213.38,110.7350648,55.15,63.684,76.37,264.64,4.2,461.82,2.16,48.85,1.995733556,29.23
1010.520008,25.33100051,7.13,12.43,79.5,75.82,159.8562974,47.69,56.388,77.45,265,3.73,450.37,1.95,50.86,1.432493824,27.25
1010.093852,24.80802588,12.15,13.98,81.89,43.36,126.9117312,64.51,79.572,106.08,265,4.52,477.08,2.36,36.22,1.011167527,28.96
1009.267051,25.82579685,12.87,14.43,82.51,37.74,134.5396616,67.18,84.492,112.67,265,4.43,503.8,2.35,32.68,1.542110537,29
1007.369768,32.80531653,6.06,13.38,83.85,9.51,178.6349539,46.06,62.184,88.18,265,3.91,492.35,1.94,38.78,0.773803419,28.19
1009.878198,26.81376598,5.93,14.29,85.68,0,84.11349611,33.24,70.692,101.72,265,4.47,496.17,2.09,28.73,0.769913415,30.69
1009.898121,33.42503617,2.98,11.22,86.52,0,85.62441595,23.08,53.616,79.47,265,3.97,484.72,1.89,34.3,3.125311566,22.25
999.4664635,28.39017668,18.5,17.79,87.76,0,220.1017225,24.69,88.128,109.77,264.64,6.07,492.35,2.67,19.08,1.749181977,33.72
1007.739036,29.12606826,21.18,19.1,92.84,0,67.12720367,27.02,88.656,106.48,264.64,5.42,477.08,2.42,16.72,1.318695843,36.5
1011.321805,25.86132004,4.34,13.03,95.84,0,151.7827276,27.22,59.016,85.85,264.64,4.05,450.37,1.86,23.03,1.353948582,25.11
1004.418804,25.63484662,2.8,12.77,97.25,0,139.5055809,24.43,52.332,77.74,265,3.86,431.28,1.62,24.36,1.309526542,23.59
1008.466287,27.74018596,2.99,13.09,97.93,0,191.0421696,26.71,53.304,78.96,265,3.53,442.73,1.45,21.57,1.84432379,24.74
1006.577184,24.80892322,3.84,14.06,97.63,0,121.0686472,28.4,62.364,91.73,265,3.51,442.73,1.53,15.63,0.37080965,27.79
1009.812782,26.84963388,3.23,14.64,97.48,0,197.1743017,21.8,59.472,88.26,264.84,3.69,461.82,1.63,15.42,1.372413445,27.27
1004.457595,31.06105158,2.52,13.56,97.91,0,196.3900167,14.96,45.768,67.89,264.84,3.78,549.6,1.71,18.72,0.608344793,25.32
1007.241956,29.66172796,3.06,12.14,98.1,13.98,139.7970482,14.01,34.248,49,264.89,3.57,610.67,1.6,22.82,1.012742043,25.32
1011.624836,27.07200768,5.44,12.54,96.04,37.28,201.1068686,15.76,36.48,48.83,264.73,3.42,748.07,1.63,24.7,2.64255882,26.65
1007.286288,27.37665096,8.46,15.77,93.82,66.42,106.2188515,18.78,40.956,51.21,264.62,3.73,942.72,1.71,27.55,2.392100493,31.93
1007.892672,31.08347252,11.25,21.21,91.63,76.51,163.2466414,20.2,51.492,63.43,264.29,4.92,900.73,1.97,28.27,1.499258841,46.7
1012.279099,24.53454601,14.88,21.54,90.01,115.15,90.43780999,22.76,57.816,67.65,264.57,5.7,736.62,2.32,28.79,1.920760375,40.69
1006.191302,26.06860859,17.18,18.77,91.72,128.47,106.4310427,28.68,60.936,68.87,264.94,5.24,614.48,2.24,28.73,1.098814131,36.81
1007.164054,25.91614167,8.93,11.87,96.16,48.07,163.6477831,15.11,45.168,56.96,265,4.06,595.4,1.81,32.57,1.142541579,23.07
1005.554445,26.28310605,12.53,9.45,98.83,84.95,91.93449911,9.55,52.824,63.58,265,3.53,545.78,1.63,32.76,2.447045689,17.01
1006.76131,29.03266588,13.1,7.21,98.68,85.55,224.188789,10.16,52.86,62.74,265,2.63,454.18,1.18,37.32,0.864847641,13.19
1006.634702,27.93488565,7.97,5.3,96.51,179.41,173.2158431,9.8,34.848,42.4,265,1.85,435.1,0.86,42.54,1.210869145,10.52
1003.196879,29.12516516,6.49,7.82,90.07,227.57,167.7521934,11.04,23.448,26.8,264.59,2,446.55,0.82,44.36,2.007873371,14.81
1006.261878,29.11469298,5.93,11.83,87.5,68.33,80.99517014,11.56,29.532,37.17,264.95,2.78,583.95,1.1,39.42,0.685717125,24.56
1007.55238,24.33671512,10.2,13.9,91.32,15.35,113.1557557,12.13,63.744,84.24,264.95,3.44,702.27,1.38,22.33,1.44235815,29.67
1012.44967,25.9187239,4.21,10.81,89.25,2.21,107.0574489,10.25,34.152,47.08,265,2.61,606.85,1.04,31.22,1.962366593,21.93
1010.926399,27.49641191,2.37,7.75,90.65,0,152.0454429,8.3,20.712,28.84,264.64,1.96,503.8,0.86,36.03,0.972891132,15.95
1004.022788,27.35655219,1.97,8.93,92.21,0,77.1207744,9.75,34.044,50.37,264.95,2.26,480.9,1.09,30.4,1.468832907,17.06
1008.217236,27.57559107,1.57,8.56,90.5,0,132.4946051,11.15,30.168,44.88,264.95,2.14,515.25,1.01,32.67,2.183614429,17.56
1000.359423,23.8709474,3.01,19.84,91.59,0,108.0922584,20.2,27.156,37.95,265,3.66,652.65,1.41,24.92,1.488641732,46.48
1012.578737,25.80826155,5.34,35.24,92.93,0,101.340092,40.37,37.68,50.86,265,6.36,896.92,2.23,15.91,1.442989724,76.12
1007.617641,30.53825869,2.23,23.41,97.6,0,162.5509029,45.27,26.484,38.1,264.64,5.17,824.4,1.92,22.57,0.481782954,47.94
1003.435811,27.80624176,1.81,13.38,99.48,0,150.171418,22.99,22.092,31.86,265,3.22,667.92,1.33,23.71,1.924630772,28.04
1008.910572,30.95201696,3.24,20.02,98.98,0,221.4905906,22.41,34.788,49.56,265,5.35,790.05,2.21,17.48,0.795226563,39.42
1006.446696,27.66913149,3.32,21.53,97.31,0,95.9691204,24.17,33,46.62,264.95,5.66,763.33,2.28,19.42,1.367556614,39.89
1005.280898,27.75728057,1.73,15.06,96.24,0,123.7895493,21.25,15.324,21.35,264.59,3.39,625.93,1.39,25.09,2.201630005,27.83
1010.055753,27.01164211,1.78,10.44,94.65,4.71,134.0400295,17.36,9.504,12.16,265,2.25,591.58,0.99,27.32,1.444699295,19.76
1009.317095,31.6212007,6.92,16.82,92.04,17.49,150.3487112,22.24,22.908,25.29,264.64,3.82,782.42,1.7,22.47,2.67544108,34.64
1012.981366,25.00023711,21.94,28.52,91.7,30.14,168.3669309,37.23,48.408,42.21,265,5.37,1034.32,1.97,15.09,0.721019309,69.22
1006.98463,30.44494482,30.2,36.14,91.4,41.85,121.9808149,52.51,64.368,54.55,264.86,8.77,1374,3.43,14.92,1.468273468,76.28
1003.91247,23.10855048,3.36,14.77,98.77,103.91,61.48819918,31.04,11.388,12.7,265,4.71,618.3,2.1,24.05,1.748371809,25.6
1006.369653,28.19154309,3.47,13.41,95.98,107.69,58.16393799,24.91,10.944,11.83,265,3.74,591.58,1.68,25.32,0.828891952,24.71
1005.136569,25.42044664,3.05,8.51,90.15,122.97,127.6679527,19.06,8.532,8.68,265,2.55,526.7,1.27,30.74,1.491082526,17.37
1002.797638,26.82894053,2.9,7.02,85.63,99.41,82.40755501,13.62,7.908,7.95,264.75,2.12,480.9,1.1,35.05,0.989520167,13.77
1006.968075,30.2212722,3.54,7.96,84.84,118.48,189.8258238,11.11,11.496,12.6,264.75,2.09,477.08,1.03,36.11,0.462044147,16.58
1008.61926,26.35257593,2.42,5.83,81.89,149.9,91.44781025,12.14,9.744,11.57,265,1.74,477.08,0.85,39.68,2.097709782,13.63
1004.310896,25.56805076,2.82,7.74,81.63,92.17,82.90683947,10.59,12.972,16.02,265,1.84,511.43,0.89,38.53,1.826084498,17.77
1007.306274,29.30074569,2.05,9.3,81.3,37.58,150.3551991,9.01,13.944,18.72,265,2.03,549.6,0.95,38.02,1.324273002,20.86
1007.34765,26.65786055,1.48,8.39,81.1,4.87,206.7016486,9.85,11.532,15.81,265,1.74,564.87,0.77,37.36,2.679587036,18.31
1004.884456,31.11135666,0.92,8.48,81.05,0,116.158219,8.56,7.428,10.24,265,1.9,572.5,0.8,36.98,1.723211782,20.61
1003.405531,27.67379551,0.92,9.43,82.12,0,116.9742269,8.4,7.116,9.74,265,2.13,583.95,0.86,34.69,1.704304686,23.45
1004.008405,23.7530889,1.36,7.99,82.61,0,166.703073,6.4,6.528,8.15,265,1.76,530.52,0.77,39.35,0.347441788,18
1009.05474,27.7243029,2.13,7.45,83.97,0,131.9714476,4.66,7.044,7.79,264.75,2.23,499.98,1.05,38.46,0.758926834,14.52
999.7473027,26.26682604,2.09,17.52,87.11,0,74.9142055,8.17,16.272,22.31,264.75,4.27,538.15,1.63,26.51,1.545177181,33.85
1006.34425,28.92258741,1.69,21.72,88.5,0,76.57997505,13.76,19.512,28,265,5.55,515.25,1.95,22.8,1.255281678,42.19
1009.793515,30.15266591,5.03,19.33,89.43,0,180.5479599,12.67,25.776,32.69,265,4.29,557.23,1.58,19.6,1.15443822,38.97
1009.650475,26.56784614,1.14,12.61,86.42,0,125.6672826,10.17,10.404,14.57,265,2.86,503.8,1.13,32.66,1.528931707,26.05
1010.386347,28.20632913,1.18,10.81,86.21,0,143.3208483,8.3,7.992,10.71,265,2.73,507.62,1.18,32.57,3.217792962,23.3
1003.088155,27.61205166,1.42,15.33,87.11,0,139.3852668,11.69,13.716,19.32,265,3.57,587.77,1.6,25.68,1.62790131,33.69
1008.693892,27.00190841,9.83,23.94,87.89,3.89,156.310242,19.58,33.12,36.84,265,5.33,740.43,2.25,18.59,2.508563359,51.42
999.4437176,23.92371362,11.04,30.52,86.95,20.17,181.6935711,36.92,41.328,47.83,264.96,6.76,973.25,2.9,18.3,2.237613966,73.2
1010.428176,28.48784356,12.86,23.68,85.73,46.11,182.9644535,28.01,42.168,46.35,264.63,6.48,1152.63,3.24,21.89,1.154652572,48.55
1008.164827,30.2493677,20.58,46.11,83.72,78.21,146.7883998,30.79,53.46,52.22,264.63,12.61,1358.73,5.7,23.55,0.343028793,99.44
1006.323809,24.42223806,25.21,58.43,82.95,60.81,129.0593502,32.19,63.216,60.4,264.94,16.06,1519.03,7.12,23.91,1.413578013,124.57
1007.859396,26.05531092,19.04,36.11,82.5,145.44,126.6629373,53.21,50.508,49.95,264.95,8.49,1015.23,3.61,30.26,2.763815944,77.46
1004.760592,27.58273169,13.19,30.61,82.37,211.07,195.0827152,54.46,38.736,40.48,264.95,9.73,946.53,4.67,37.12,0.938201037,63.59
1012.528813,30.58201098,10.78,28.3,79.1,249.06,233.5553541,59.15,33.024,35.2,264.33,10.19,839.67,5.09,45.16,0.569528225,55.74
1008.090916,31.00494041,6.62,19.59,78.53,222.84,171.8016821,42.26,23.988,27.45,264.63,6.33,583.95,3.13,50.21,1.765223136,39.41
1006.40641,27.12140536,3.63,34.48,78.53,214.67,171.58842,29.57,15.204,18.28,264.84,9.43,702.27,4.34,56.34,1.891324792,75.15
1012.785101,27.57943987,2.13,33.48,78.86,164.19,208.9156943,20.87,12.072,15.67,264.84,10.99,702.27,5.54,58.98,1.143953079,70.71
1008.095278,24.81907358,3.62,26.81,79.25,121.51,147.6152578,26.51,20.316,26.28,264.61,11.11,702.27,6.28,54.44,1.063713603,48.97
1010.805912,26.19010038,4.87,36.19,79.7,67.73,163.7610425,46.18,41.064,56.89,264.95,15.31,980.88,8.55,43.13,0.972038711,68.82
1006.886442,29.91300705,5.93,47.09,80.91,9.42,127.8914556,42.12,62.712,89.08,265,17.72,1183.17,9.77,27.76,1.01492791,93.69
1004.052684,24.52975103,12.58,51.07,83.8,0,195.212041,23.57,77.184,101.67,265,18.61,1477.05,10.3,15.89,1.478766445,98.6
1003.586835,26.38030202,3.54,41.46,85.41,0,208.960014,22.07,56.052,82.43,265,16.24,1225.15,9.17,18.45,0.974094638,78.49
1007.660557,28.01058913,5.12,42.27,86.02,0,95.99947071,25.52,57.108,81.65,265,15.72,1175.53,8.76,15.37,2.197892531,79.31
1008.288798,26.37967378,9.62,43.58,87.38,0,104.0188483,28.87,61.86,82.2,265,15.15,1324.38,8.3,12.28,2.496265342,82.42
1007.914235,26.68919158,12.35,45.61,90.08,0,203.7134097,26.3,58.908,73.39,265,15.5,1358.73,8.36,12.26,0.541767295,90.34
1007.9063,32.47503501,9.62,36.04,92.51,0,192.5868305,22.92,49.572,62.95,265,12.2,1053.4,6.76,12.92,2.247876186,70.28
1010.607844,26.86829216,1.44,25.9,94.01,0,161.8381729,27.73,31.392,46.99,264.95,9.87,912.18,5.86,16.53,0.953611228,46.72
1011.096432,25.76824241,1.63,23.19,95.76,0,157.0848689,30.14,28.068,41.43,264.95,10.12,893.1,6.14,16.07,2.118680324,40.78
1002.902394,30.08361516,2.42,23.15,95.92,0,104.8647709,33.42,29.136,41.9,264.95,10.06,820.58,6.11,14.33,1.092420927,39.54
1007.963539,29.44206685,3.15,23.41,94.78,0,144.4087568,32.95,28.608,40,264.6,9.92,809.13,5.96,13.77,1.28807192,40.71
1003.440249,28.85661474,6.221818182,34.86,94.6,5.28,174.9503056,30.02,54.684,38.84,264.88,12.67,980.88,6.92,12.67,1.197345002,63.7
1008.722491,28.50389389,6.364545455,39.95,94.55,43.21,168.2045379,27.91,65.376,36.4,264.81,14.07,1087.75,7.57,13.41,1.310545724,78
1007.615477,31.24277836,6.637272727,34.77,91.74,148.64,187.529053,57.63,63.72,43.53,264.41,11.99,1152.63,6.57,18.61,2.354131068,69.2
1008.892143,26.74090465,6.438181818,33.98,85.47,333.87,120.8355629,95.44,80.244,58.86,264.11,10.52,1263.32,5.57,29.48,0.940053651,70.43
1011.756718,26.78000868,6.392727273,21.77,78.15,562.92,64.8011013,56.2,55.224,59.11,263.77,7.81,736.62,4.29,49.53,1.156408094,46
1012.870992,29.0864157,14.62,18.49,75.18,652.02,143.9604218,51.01,50.844,57.27,264.47,6.48,484.72,3.53,60.76,1.736173816,34.41
1010.216373,25.76068828,14.45,15.84,73,558.07,104.1646144,35.87,51.54,58.62,264.68,5.82,435.1,2.99,61.21,1.49874713,30.36
1002.311236,30.39360393,33.02,21.97,72.24,576.41,196.0043917,44.67,91.512,92.76,264.46,7.94,446.55,4.11,45.4,1.07903485,37.56
1007.024943,31.9654356,22.82,20.6,72.33,246.42,101.7796586,59.58,93.288,111.21,264.73,7.66,419.83,4.05,43.74,1.674604685,34.44
1006.539944,27.22438793,9.04,17.98,75.44,112.84,142.5482666,39.86,58.884,78.44,265,6.3,454.18,3.19,61.51,1.430239895,34.42
1009.214857,30.54594675,3.62,16.76,77.37,105.39,122.7167876,30.49,42.54,61.12,264.89,5.87,458,2.99,73.66,1.081548479,32.76
1003.169711,30.40793587,2.06,18.24,81.69,36.81,79.3638069,18.83,29.208,42.61,264.89,5.93,480.9,3.08,76.11,1.851900685,36.02
1009.956263,26.80641105,1.51,16.48,82.27,30.57,92.70032435,9.06,20.664,30.08,264.89,5.71,473.27,2.84,74.34,1.305445396,33.42
1010.363564,26.79170149,2.03,18.15,82.87,6.84,75.90829521,11.44,42.264,63.13,264.89,6.58,484.72,3.11,51.71,1.070853686,37.38
1003.189132,30.351112,2.32,18.21,86.15,0,85.71690961,12.59,54.216,81.43,264.89,7.15,477.08,3.41,37.85,1.38622358,34.38
1012.679189,25.64941698,1.4,15.25,89.85,0,126.5572588,8.75,21.636,31.76,264.95,5.95,499.98,3.02,51.84,0.937133074,26.73
1004.66569,28.76824785,1.57,15.99,90.8,0,105.8788997,8.37,19.068,27.48,265,5.43,515.25,2.61,49.84,3.227636295,31.06
1009.44334,31.64749822,1.81,18.49,91.05,0,139.7780206,10.03,24.492,35.63,265,5.6,473.27,2.61,45.31,2.051896644,35.21
1005.362952,27.05480544,2.35,24.05,91.18,0,91.66123705,15.92,42.576,63.13,265,6.45,469.45,2.78,31.6,1.823163333,48.98
1009.021877,28.4655505,7.11,27.09,90.55,0,193.7357297,23.72,71.688,101.46,264.65,7.08,446.55,2.98,18.16,1.158202863,55.7
1005.313822,32.81744932,5.1,25.49,88.21,0,93.99283332,24.2,74.868,109.52,264.65,6.43,385.48,2.71,18.28,0.56182236,50.92
1010.753537,29.1066768,2.49,18.47,86,0,156.9279544,30.57,65.364,98.64,265,5.57,343.5,2.47,25.88,0.74422789,34.85
1009.07497,24.55679593,2.39,15.58,86.29,0,128.5308367,36.32,57.852,87.01,265,5.51,351.13,2.62,31.48,1.681630446,29.98
1005.929467,31.71040317,2.54,15.98,89.25,0,183.722128,16.87,44.208,65.39,265,5.02,381.67,2.32,32.39,1.335166748,31.58
1004.432314,25.46630516,4.92,14.67,95.38,16.74,173.8021211,14.23,66.96,97.25,265,5.48,492.35,2.62,20.4,2.098430574,26.08
1008.554472,28.47131421,4.593636364,17.79,97.29,95,111.0684194,18.62,86.124,100.04,264.95,6.38,667.92,3.06,17.98,0.880444703,32.11
1007.861465,31.030847,3.165454545,23.16,91.57,244.86,110.5833653,51.49,116.964,94.72,264.94,7.37,664.1,3.59,18.96,2.207205395,46.2
1005.942403,27.34050498,2.807272727,27.89,85.26,381.86,120.9810457,91.66,129.696,92.07,264.96,7.99,511.43,3.81,22.97,1.848525611,52.68
1003.124484,26.80450152,2.704545455,26.14,81.87,311.38,161.1123603,52.58,106.5,95.99,264.57,7.42,435.1,3.35,27.06,1.811181981,46.12
1002.825152,26.11131591,29,24.05,80.15,417.19,93.80181093,35.46,82.8,85.28,264.56,6.85,404.57,3.09,36.51,2.289621199,46.56
1006.196289,25.97043883,14.38,15.96,76.16,653.15,175.8800795,21.5,45.42,49.14,264.54,5.5,351.13,2.48,58.56,1.180046743,29.57
1006.184701,25.89086021,13.82,15.69,74.18,643.28,138.7129948,21.93,47.244,52.84,264.46,5.87,339.68,2.71,61.14,1.756994952,27.82
1007.17681,24.47820897,8.43,13.89,72.39,625.52,80.40342891,20.19,30.492,34.85,264.23,4.97,316.78,2.32,72.57,1.509976143,25.99
1005.412867,31.04953165,3.46,10.31,70.47,547.23,133.6969077,9.28,11.724,13.07,264.25,3.73,290.07,1.65,76.35,0.971958869,18.39
1007.955085,30.83986003,2.9,10.46,69.9,307.38,73.03068124,5.4,8.688,9.15,264.33,3.58,282.43,1.49,75.88,1.422101776,19.51
999.2774345,26.69100231,3.12,13.22,70.87,145.44,82.7138128,4.41,11.352,13,264.22,3.69,309.15,1.49,69.24,1.74213363,29.68
1008.865004,28.89424126,2.3,13.71,74.05,76.7,138.6876989,4.87,13.776,18.06,264.56,3.81,362.58,1.54,61.3,2.158006105,33.26
1005.169166,21.69655128,1.31,15.57,78.6,18.89,74.24238168,7.88,18.816,27.49,264.92,4.36,423.65,1.85,53.21,0.967909104,35.56
1009.302965,28.39193475,1.67,19.11,85.74,0,135.6218361,8.83,17.712,25.21,264.84,6.4,446.55,3.14,50.06,1.575346255,37.6
1003.663084,28.28392289,1.86,17.48,90.28,0,158.7470171,7.56,11.196,14.7,264.94,7.2,408.38,3.8,49.89,1.210280522,32.2
1007.880273,27.84006105,1.82,15.26,92.26,0,97.08071401,9.13,16.884,23.66,265,6.24,396.93,3.06,43.57,1.309974842,28.11
1006.330003,25.4344337,1.55,12.98,91.83,0,124.066432,7.82,11.616,15.82,264.94,5.09,324.42,2.41,50.37,1.954806529,23.13
1006.627321,27.34784135,1.7,13.89,90.67,0,198.9104784,10.52,14.868,20.69,264.94,4.9,324.42,2.34,47.87,1.163228808,25.05
1010.507448,26.91894558,1.99,12.54,90.66,0,171.7927214,11.81,16.368,22.61,264.95,4.25,301.52,2.02,46.24,1.615207406,23.01
1006.179503,24.3924683,2.02,10.49,91.39,0,85.69299132,10.49,13.812,18.55,264.66,3.73,267.17,1.75,44.57,1.474589531,19.13
1007.097153,31.17451736,1.69,10.22,91.8,0,152.893964,14.45,17.388,24.67,264.45,3.68,293.88,1.7,39.14,0.432095792,19.01
1002.94481,27.71746234,2.22,12.38,92.67,0,236.5135884,13.35,21.276,29.94,264.82,3.97,312.97,1.76,33.57,1.624473904,22.11
1009.856866,29.93736443,2.6,17.17,93.6,0,151.1944614,10.67,24.72,34.76,265,5,358.77,2.15,28.27,1.1961218,30.82
1010.662244,27.8514216,9.69,23.3,93.79,10.79,70.04207046,16.07,45.672,56.71,264.89,6.51,522.88,2.83,19.19,2.381662207,45.79
1006.382913,29.36207325,39.69,30.66,91.96,44.43,139.0082873,25.62,86.436,74.59,264.81,7.85,667.92,3.38,14.17,2.441644799,59.48
1007.842199,28.63877605,75.48,33.41,88.32,170.12,160.7194216,57.94,119.964,72.05,264.73,8.44,622.12,3.77,16.93,2.548663475,63.06
1005.571958,28.56494657,39.12,22.33,82.53,442.28,107.0615375,40.77,70.032,49.75,264.67,6.43,416.02,2.84,34.99,1.833835015,45.09
1005.686204,30.29984994,8.52,15.04,78.83,535.54,187.7001307,12.9,26.436,28.38,264.58,5.04,328.23,2.23,51.75,1.209512952,29.18
1007.785606,26.23457433,10.09,15.25,76.23,436.85,68.57020219,15.78,34.176,38.1,264.34,5.12,324.42,2.36,48.93,0.855649641,26.28
1006.168626,32.8363986,6.17,14.53,75.38,315.95,187.6264654,12.63,24.78,29.36,264.67,5.57,316.78,2.66,54.91,1.492957362,27.1
1009.196745,31.06107772,2.57,10.57,73.59,443.62,98.37998474,4.13,8.016,8.61,264.67,4.02,240.45,1.77,65.19,0.93068664,22.1
1003.326556,28.26399138,2.8,8.98,73.07,546.87,147.1567181,3.38,6.6,6.05,264.4,3.54,232.82,1.45,64.11,1.35982641,19.35
1004.987145,27.64071679,3.26,9.54,72.1,536.31,146.7445075,3.17,7.5,6.75,264.21,3.5,248.08,1.43,63.49,0.844167599,18.47
1008.057695,31.46842374,3.94,9.7,73.38,265.86,74.23972788,4.69,11.328,11.72,264.19,3.36,278.62,1.39,61.13,2.442668923,21.01
1003.689267,24.14071628,2.78,10.86,75.11,150.43,148.8216623,4.75,10.776,12.62,264.27,3.47,320.6,1.38,58.65,1.040722923,25.71
1009.144542,25.77439121,2.77,13.3,78.02,66.7,141.3209972,5.98,14.124,17.89,264.51,3.93,358.77,1.63,51.9,1.80785385,29.64
1009.235827,28.60270963,2.71,14.32,81.76,11.07,147.6481251,7.46,16.872,22.29,264.89,4.66,362.58,2.06,44.08,0.546134196,28.69
1009.071422,26.20322701,4.71,20.08,83.43,0,123.7178874,14.99,34.056,46.16,264.56,5.77,473.27,2.6,27.73,1.537194683,43.26
1007.819835,26.18148983,3.29,15.29,85.65,0,76.90811709,12.23,23.664,32.04,264.61,5.17,469.45,2.42,30.69,2.80753454,32.73
1008.650388,24.83010762,2.33,14.53,87.74,0,84.88005768,7.47,15.036,20,264.89,4.89,362.58,2.31,34.11,0.956064136,28.8
1008.112531,29.55814833,2.11,13.24,87.92,0,60.63684171,7.02,13.956,18.63,264.55,4.54,316.78,2.17,33.54,0.885563317,27.67
1005.083278,25.61715837,1.97,10.38,88.46,0,147.5784908,10.54,13.932,18.83,264.84,3.9,259.53,1.84,35.89,0.818574376,19.23
1006.043302,25.79387772,2.07,8.25,89.64,0,165.8014537,7.66,10.2,12.81,264.87,3.23,259.53,1.48,37.46,1.107136134,14.63
1007.336145,30.31066612,2.26,10.16,90.96,0,164.7430294,6.39,11.568,14.67,264.89,3.59,270.98,1.54,37.3,1.177724067,17.6
1003.577984,30.55283929,2.06,11.85,92.01,0,109.0993147,5.4,12,15.66,264.84,3.61,259.53,1.51,38.3,1.160693432,23.07
1008.610174,25.65193557,2.31,10.62,93.85,0,94.78654151,7.61,13.788,18.06,264.84,3.6,293.88,1.51,33.7,1.70709015,21.86
1003.796715,25.22988317,2.64,11.62,93.27,0,204.4497065,9.44,16.668,22.07,264.76,3.98,290.07,1.67,30.65,1.184987531,23.82
1002.571155,25.74696268,3.4,12.51,91.92,16.31,119.2079346,11.66,18.78,24.18,264.6,4.24,377.85,1.83,30.4,1.662583826,25.64
1012.28884,30.80020615,7.01,15.95,90.86,62.53,141.9234539,21.64,32.208,39.69,263.97,5.15,503.8,2.35,25.38,0.721327549,30.92
1005.000605,28.76236184,7.6,14.68,88.66,202.89,133.1556222,15.06,24.036,26.03,263.59,4.51,446.55,1.96,35.1,1.45918349,28.11
1008.094613,26.06899801,17,17.32,86.87,254.66,138.7606841,17.25,40.092,36.77,264.25,4.98,440.83,2.25,32.38,1.618117976,33.91
1002.383184,28.07789182,5.09,22.38,96.38,100.89,164.5817248,8.77,19.104,22.13,264.94,9.72,1253.78,4.25,30.55,0.73969824,40.58
1007.110326,23.09372697,1.39,10.41,97.15,95.36,163.0675021,4.53,9.504,12.75,265,4.67,156.48,2.09,39.12,0.683002578,19.93
1004.501792,27.91462759,2.53,6.34,97.36,143.23,132.1164445,3.28,13.176,16.76,265,2.93,206.1,1.31,42.77,1.473113544,13.51
1008.3286,27.58385586,18.69,7.44,90.86,374.32,110.255788,13.86,39.012,32.47,264.84,3.07,190.83,1.55,34.05,2.285218158,13.82
1003.631595,30.29707321,31.63,11.34,83.83,631.97,199.6096681,31.89,56.448,39.94,264.56,4.64,72.52,2.33,31.64,0.37223986,19.29
1005.455037,25.51425792,21.81,11.26,80.45,611.44,188.70202,22.7,46.284,39.08,264.33,4.41,106.87,2.07,37.11,2.899471112,21.78
1004.656662,25.83786553,13.55,10.57,78.72,325.43,141.369856,17.1,30,26.23,264.43,4.14,114.5,1.83,48.15,2.254886196,18.34
1011.487447,23.34160829,2.92,9.87,78.61,157.78,188.9813531,6.98,9.504,10.43,264.36,3.46,156.48,1.44,52.33,1.107120289,19.25
1001.163979,29.31389905,2.36,11.88,83.68,50.9,161.5618175,4.88,12.78,16.41,264.76,4.19,187.02,1.69,43.72,1.738451488,21.67
1012.38827,30.29788981,1.58,14.03,87.79,7.25,173.0921642,4.22,15.48,21.84,264.83,4.55,198.47,1.85,39.67,1.623850941,26.19
1004.989795,31.47414359,0.87,13.91,90.17,0,133.9137943,5.83,14.676,21.66,264.73,4.66,217.55,1.99,36.24,2.706177746,27.67
1011.496763,24.02758184,1.19,12.82,91.66,0,140.143217,7.78,14.268,20.52,264.53,4.42,217.55,1.9,33.8,2.279903338,23.38
1001.289918,25.70104844,1.82,12.93,92.85,0,183.4303612,9.87,24.372,35.41,264.22,4.59,229,2,24.58,1.155989526,25.02
1005.707152,26.10849376,2.31,14.65,94.52,0,137.3693455,8.61,29.952,43.41,264.64,5.18,209.92,2.28,19.79,1.148884456,27.58
1006.413022,29.9788472,2.14,13.52,94.8,0,150.0487254,11.76,18.888,26.33,264.57,4.59,198.47,2.04,28.03,2.300210042,26.1
1012.613038,27.74723235,1.86,12.61,95.7,0,112.2619366,9.69,17.94,25.29,264.84,4.08,175.57,1.75,30.86,1.7072138,24.19
1008.917632,26.39649305,1.69,13.73,96.32,0,121.3054148,5.36,17.22,24.4,264.93,4.29,122.13,1.78,31.74,1.685565743,25.11
1006.64597,28.76923603,1.98,12.82,97.24,0,161.6414322,7.56,16.164,22.3,264.62,4.56,125.95,1.88,31.62,2.364888799,23.69
1001.80662,28.31502758,1.86,13.83,96.31,0,170.9022714,4.89,10.692,13.9,264.55,4.78,133.58,2,39.96,1.125994178,24.77
1010.91121,25.68588512,1.81,14.38,95.87,0,152.9551289,2.42,8.64,10.77,264.55,5.01,179.38,2.14,41,0.881352209,26
1007.452897,24.1802909,2.14,15.12,95.92,10.46,106.7641504,5.37,13.128,17.3,264.67,5.19,316.78,2.3,38.21,0.971641077,25.5
1009.326378,27.3290227,3,16.85,95.13,58.83,244.4677262,10.66,18.852,24.94,264.54,5.67,477.08,2.53,35.74,0.851721266,30.64
1002.926709,31.48958544,4.52,19.18,91.38,201.93,122.2815594,14.38,20.388,25.02,263.77,6.08,438.92,2.65,41.71,0.925348022,35.7
1005.780436,29.00889497,3.42,16.69,85.07,401.06,90.69570078,11.31,13.656,16.15,264.04,5.55,290.07,2.27,54.47,1.144593615,31.01
1005.947031,29.07098285,2.64,14.89,78.49,610.09,128.2347241,5.4,10.116,11.81,264.71,5.29,236.63,2.11,50.29671022,2.48320857,28.39
1001.396531,28.11224565,2.21,15.56,75.8,633.08,136.2135594,3.44,9.348,11.27,264.69,5.45,202.28,2.09,47.8883688,1.407933138,32.83
1007.037078,30.22378406,2.24,15.87,76.5,431.09,142.361461,2.22,9.432,11.35,264.49,5.83,187.02,2.28,45.16724168,1.838951299,31.09
1001.426804,24.19303385,2.37,15.97,74.69,512.57,142.7448409,1.62,7.236,7.71,264.22,5.44,152.67,2.2,43.71959149,0.936643807,30.06
1012.678025,26.37593612,1.94,16.38,74.95,473.32,178.3036329,1.57,5.688,5.93,264.22,5.51,148.85,2.21,42.41554309,0.862761401,31.38
1008.927862,29.34896774,2.28,15.61,73.87,536.92,78.16988649,1.31,7.308,7.95,264.32,5.53,171.75,2.23,40.75051837,0.929998544,28.59
1008.372909,24.65563717,2.42,17.15,73.37,395.14,133.7469898,3.31,9.18,10.68,264.22,5.57,179.38,2.25,39.45173496,0.486778806,31.95
1005.977202,25.74899606,2.51,17.92,72.14,129.92,113.9324346,5.43,12.564,15.84,264.11,5.5,217.55,2.19,35.32130406,1.194224306,33.31
1008.933229,27.26585928,17.62,27.18,75.89,60.09,114.2958892,26.03,66.156,76.69,264.25,8.4,274.8,3.7,33.14068511,1.444348414,55.91
1007.695213,28.0166858,51.97,37.6,83.01,17.6,124.3149285,61.55,138.36,137.19,264.86,15.2,408.38,7.46,32.49648991,1.330974415,68.13
1002.572346,28.73779305,23.37,33.99,87.85,0,183.4729168,32.83,63.816,64.19,265,15.31,419.83,8.27,31.98012111,1.324471716,54.88
1004.468327,29.17837771,1.75,23.83,87.06,0,133.7137651,5.7,10.776,14.23,264.58,10.99,343.5,6.09,32.8132532,1.412626856,38.14
1010.273879,27.37996837,1.55,19.63,83.05,0,105.5732843,4.99,12.672,17.5,264.5,7.06,263.35,3.51,31.6802886,1.098820651,36.44
1008.501638,27.41867412,2.09,21.36,82.8,0,258.4961343,16.67,27.324,39.63,264.89,6.63,213.73,3.19,29.81555581,2.083745821,41.32
1004.04262,26.6028254,2.14,21.89,83.86,0,142.3996397,37.56,40.836,60.72,264.58,6.9,179.38,3.24,27.44171771,2.919965536,41.09
1010.323494,25.57394813,2.22,18.9,84.9,0,153.7469037,35.58,37.86,55.95,264.78,6.15,145.03,2.81,28.71639904,1.16698908,37.17
1004.570326,27.3102327,2.1,16.06,85.97,0,141.4049457,22.81,35.316,52.04,264.91,5.33,118.32,2.34,31.32475669,1.074109859,29.72
1005.615473,28.40982198,2.27,15.62,87.96,0,191.0926859,15.17,28.368,40.97,264.89,5.04,118.32,2.11,33.90028407,1.047173162,27.94
1002.860288,31.31318663,2.22,17.45,89.33,0,198.742845,10.15,24.252,34.56,264.78,5.56,110.68,2.35,36.25216106,2.868767094,33.78
1006.001077,25.83556617,2.1,17.84,90.21,0,191.4009349,8.42,18.036,25,264.84,6.04,145.03,2.65,38.37070568,1.871357503,34.9
1007.818918,24.39306464,2.42,20.13,89.77,10.24,125.3847119,11.16,20.016,27.67,264.23,6.89,248.08,3.16,41.49505426,0.446121379,37.91
1010.706574,27.44029675,2.71,20.83,88.91,65.31,138.5913481,8.38,15.264,19.76,264.07,7.33,293.88,3.33,41.27313091,1.697931372,37.79
1001.776472,26.52754004,3.19,22.54,86.41,236.34,121.6864107,6.23,13.872,16.86,264.06,7.62,305.33,3.39,41.8958155,2.022508231,41.59
1002.513363,26.26180192,3.35,22.98,80.77,467.17,163.1710609,4.38,12.708,14.78,264.24,7.69,270.98,3.37,43.63759379,1.773810343,43.29
1006.44098,25.60396455,2.81,22.83,75.7,604.22,74.28952391,3.57,10.836,12.67,264.68,7.62,229,3.28,44.67949882,1.442634613,41.1
1007.523424,22.9379241,2.37,22.63,73.9,546.65,127.9060461,3.35,10.416,12.68,264.89,7.68,202.28,3.07,44.06154007,1.537049666,41.27
1004.022225,31.92942821,2.09,20.62,70.71,611.3,127.9110214,2.08,9.096,11.04,264.84,7.02,183.2,2.84,41.10798331,3.037864628,38.95
1006.429537,27.43185929,1.9,18.76,68.64,614.59,73.98514727,1.81,7.248,8.43,264.73,6.5,164.12,2.71,39.76008723,1.841633868,35.21
1010.574958,28.09111894,2.41,20.47,68.5,569.17,85.09881329,3.32,7.644,8.28,264.39,6.53,175.57,2.81,40.9522679,1.430721122,37.64
1008.179214,26.8284094,2.45,20.2,68.92,501.59,124.5950805,4.34,6.924,7.1,263.81,6.34,164.12,2.71,39.60707392,1.770319622,37.45
1008.477555,25.96723293,2.71,21.78,69.06,315.51,175.9722025,8.03,12.192,14.95,264.05,6.38,171.75,2.63,36.37877622,1.164910225,41.88
1003.98234,25.61225926,2.2,22.11,69.71,127.15,129.4416648,8.65,13.08,17.12,263.81,6.08,202.28,2.42,32.92699479,2.221682122,47.08
1003.697253,24.3298697,6.24,25.34,75.57,61.83,62.24978163,17.2,47.844,65.43,263.92,7.73,217.55,3.33,30.21924434,2.012670761,50.81
1004.633995,26.20495423,4.35,24.23,79.91,19.25,132.2006917,21.81,50.784,72.93,264.58,7.93,244.27,3.55,30.18322944,0.444014226,49.19
1009.149569,24.26841675,2.31,20.98,83.34,0,123.6109144,12.43,46.14,68.77,264.81,7.79,202.28,3.74,28.83653101,2.924767812,38.69
1000.056791,29.31987969,1.73,19.12,84.36,0,116.9131819,6,11.832,15.88,264.78,7.14,164.12,3.47,29.15870675,0.59515713,34.9
1013.327455,29.58734592,2.11,18.41,82.96,0,179.9699576,5.55,10.464,13.18,264.84,6.34,148.85,2.93,29.6017931,1.419940877,35.21
1004.839342,24.54481144,1.79,16.91,81.95,0,157.9502667,7.76,13.212,17.98,264.94,5.9,125.95,2.54,30.72504582,1.706516402,31.34
1007.640671,25.34363405,2.15,16.69,83.61,0,163.7187625,9.93,18.072,25.02,265,6,122.13,2.57,30.92769813,1.332877922,29.74
1011.180852,28.81716747,2.04,17.73,86.45,0,68.66380697,8.02,20.424,28.88,264.89,6.07,125.95,2.66,30.13559384,1.712520376,32.49
1007.224998,31.26435733,1.72,17.12,89.08,0,148.9117457,7.01,20.376,29.31,264.94,6.11,118.32,2.71,30.93087157,0.950500237,29.36
1009.413906,27.50107673,1.88,18.31,89.56,0,201.9526406,7.95,25.176,36.59,264.94,6.54,114.5,2.94,32.759738,2.80939627,32.4
1005.937304,25.69264222,2.04,18.71,90.44,0,104.382425,6.8,25.68,37.06,264.94,7.13,103.05,3.29,35.10488256,2.512797106,31.22
1008.933338,31.777997,1.74,20.16,91.94,0,158.4596673,4.31,14.796,20.5,264.83,7.65,114.5,3.6,35.40350942,1.40757399,35.87
1002.495426,28.22673583,2.11,20.43,92.12,20.37,112.1560164,3.71,12.684,16.66,264.89,7.98,171.75,3.82,36.35592937,1.022055455,34.25
1013.023788,22.89721257,3.11,22.38,89.21,112.18,144.9049033,3.59,15.204,19.07,264.78,8.23,229,3.92,38.0145399,1.726065771,38.19
1006.046871,30.28953899,5.61,23.88,83.45,296.18,161.337726,8.42,23.292,27.9,264.73,8.19,301.52,3.89,39.31603398,1.35086846,42.29
1005.875552,24.39846462,7.36,22.83,75.86,501.66,103.0428059,13.51,31.152,37.54,264.56,7.71,282.43,3.45,39.47831815,2.25966377,40.19
1010.734871,27.03101279,5.01,25.1,68.82,669.76,71.52600302,13.31,22.44,27.49,263.9,7.31,309.15,3.18,37.56906146,1.942289299,45.53
1009.770541,27.65849668,2.39,26.65,63.44,782.13,151.5645778,8.96,13.212,17.05,263.83,6.8,412.2,2.92,36.28411821,1.259638625,55.58
1004.558439,26.572146,2.19,27.12,59.43,824.84,183.8748184,5.99,15,20.16,264.35,7.25,408.38,3.13,37.25249757,0.819435657,60.88
1012.091015,27.03173461,2.22,23.44,53.74,814.05,100.8733094,7.98,17.772,24.45,264.16,6.95,389.3,3.11,36.78416046,1.596753187,46.26
1008.580712,25.68862663,1.4,22.38,50.66,744.33,174.5832979,15.63,14.592,20.72,264,7.23,446.55,3.29,36.47385553,0.542000865,43.37
1006.226208,29.14599213,4.66,28.51,56.91,606.32,123.9181268,11.86,36.408,49.91,264,8.83,354.95,3.96,36.27006667,1.461956796,53.57
1006.19888,26.59516316,9.94,36.09,63.17,324.06,133.7350029,19.51,72.432,98.16,264,10.35,305.33,4.51,36.601016,2.368677125,75.13
1003.968013,24.92698462,9.64,38.57,64.96,115.62,65.58142043,24.5,78,107.48,263.65,10.25,351.13,4.47,35.12949115,0.592686576,78.1
1010.730124,28.58645677,3.42,30.64,66.69,64.38,85.15269474,13.84,37.224,53.11,264.01,8.64,404.57,3.82,30.98930482,3.289644249,58.66
997.5933296,31.86878691,2.56,30.59,71.07,20.96,219.5607878,12.47,42.864,63.25,264.38,8.96,389.3,4.14,29.37580139,0.465327419,63.39
1009.436027,24.99430411,1.84,27,76.51,0,129.3317924,10.74,28.38,41.66,264.52,8.61,259.53,3.94,29.86470115,2.988287524,59.2
1003.66564,25.65794921,2,21.99,78.8,0,85.34032643,4.74,11.532,14.98,264.54,7.56,202.28,3.44,29.96057039,1.781637537,46.57
1006.845428,32.06531556,1.74,19.24,78.99,0,83.88353856,5.84,13.908,19.11,264.28,6.71,167.93,2.9,28.59877531,1.457493392,39.41
1005.214687,23.31397969,1.75,19,77.9,0,99.02174313,6.34,13.464,18.42,264.89,5.97,141.22,2.47,27.9115131,1.193846163,36.67
1003.040771,29.38427942,1.77,20.49,76.73,0,164.7547059,14.32,20.472,29.36,264.95,6.12,125.95,2.57,29.03437507,1.42275152,38.27
1003.361934,30.95404964,1.31,21.81,76.66,0,180.8204923,24.02,29.532,44.28,264.79,6.66,114.5,2.73,29.91732208,2.438362038,42.27
1002.158426,28.99079908,1.81,19.38,78.78,0,185.4728882,16.86,22.2,32.01,264.73,6.33,114.5,2.6,31.17575777,1.388614357,39.42
1005.755839,28.96754204,1.88,19.13,81.49,0,136.1276697,10.51,15.42,21.29,264.69,6.2,106.87,2.63,32.52513063,1.389037093,39.73
1006.106319,27.63963559,1.95,18.88,82.73,0,124.9993763,6.82,14.712,20.07,264.71,6.34,110.68,2.75,35.14107722,1.066459701,34.82
1007.956851,25.4365528,1.76,22.31,83.25,0,127.0176407,5.3,15.396,21.44,264.78,7.15,125.95,3.12,37.26586448,1.068782159,40
999.6071311,27.49762589,2.17,24.6,83.82,20.72,102.9863659,5.6,19.716,27.57,264.67,8.04,160.3,3.47,37.17128441,1.183147066,44.57
1002.990869,26.8548373,3.11,24.59,83.31,114.77,93.88078943,6.73,21.864,29.49,264.53,8.65,202.28,3.87,36.53239572,2.293422496,44.74
999.4435632,24.58314201,5.63,26.87,80.13,298.16,158.8999201,12.85,27.6,34.62,264.03,9.07,232.82,4.08,37.3883131,1.918694788,52.2
1009.567572,24.30501606,9.22,28.01,75.52,490.75,170.5616481,16.19,36.648,43.3,264.22,9.54,251.9,4.3,38.71256285,1.799111229,54.86
1007.207119,30.40471385,8.7,30.94,71.87,659.8,104.2202658,17.93,37.68,45.71,264.11,10.38,244.27,4.54,38.38819966,1.63037476,58.74
1006.347681,28.25040197,6.57,34.05,68.36,774.62,97.35457081,18.61,35.856,46.13,264.05,10.65,297.7,4.55,35.99723319,2.522287584,66.63
1009.356587,31.71873482,3.89,36.23,64.83,830.04,105.7640577,10.13,28.26,38.33,264.27,10.72,305.33,4.65,35.55272926,0.975158156,69.72
1005.836038,24.60533688,3.47,36.58,63.43,801.9,152.9665959,4.25,29.904,41.55,264.11,11.11,270.98,4.94,36.52709468,2.115858776,67.42
1005.889433,28.7397965,4.02,33.98,63.65,706.46,160.9385033,3.03,36.324,50.77,264,10.81,248.08,4.8,36.87819377,1.51513682,60.73
1004.422969,29.01470345,3.74,33.24,62,588.89,102.9609139,2.44,36.072,50.79,264,10.05,236.63,4.46,34.99883629,0.402192465,61.55
1007.884387,27.77339263,4.45,34.37,62.99,308.81,168.4864845,2.81,40.872,57.25,264,9.78,244.27,4.35,32.88694768,1.323291261,71.68
1005.049072,30.28470524,3.88,39.93,64.99,112.19,86.20613755,2.55,39.132,55.38,264,10.12,274.8,4.47,33.96091548,1.838270997,84.27
1009.439585,26.69367657,2.49,36.42,64.37,62.16,160.7905249,3.23,33.252,48.3,264.05,9.83,343.5,4.27,32.89470187,1.702034568,74.23
1008.889185,27.33613566,1.81,36.14,66.76,21.59,204.9227234,8.98,24.36,35.4,264.28,9.53,400.75,4,32.73758149,0.765319049,74.38
1005.395826,27.45211291,1.82,36.16,72.36,0,159.4750013,9.13,22.38,32.28,264.57,10.27,320.6,4.31,31.4059975,0.657725338,74.32
1005.143227,25.58955501,1.99,28.08,74.29,0,81.09186648,5.43,19.512,27.53,264.33,9.16,217.55,4.1,30.53912772,0.653278944,53.88
1006.90592,27.03292636,2.16,27.49,74.31,0,98.29738192,8.24,25.776,37.09,264.38,9.48,190.83,4.11,30.64994059,0.727843573,52.3
1008.283473,26.09511753,2.24,28.39,75.49,0,154.1886674,10.9,30.072,43.71,264.72,9.69,175.57,4.07,29.72311219,1.630302094,55.41
1012.49148,30.6044227,1.98,26.23,77.37,0,119.0337252,13.75,25.212,36.49,264.74,9.25,152.67,3.8,29.74022889,2.401219459,45.52
1010.544029,26.89393499,1.94,24.68,78.49,0,143.2467474,12.93,23.544,33.92,264.8,8.68,137.4,3.49,30.7227317,2.226854545,44.3
1012.524925,28.52320912,2.33,24.58,81.43,0,127.7378266,15.89,28.284,40.77,264.84,8.89,133.58,3.84,32.69663081,1.774024843,42.19
1007.374941,23.85419144,2.08,25.19,83.41,0,115.2151056,16.3,23.292,33.33,264.73,8.99,133.58,3.98,33.66882944,0.849858444,43.57
1010.22804,28.3529634,2.23,24.45,83.89,0,199.1674293,11.51,20.364,28.5,264.84,8.93,133.58,3.99,34.03999731,1.155279846,40.5
1000.586933,28.7160863,2.48,23.95,84.98,0,129.5725549,8.14,17.58,23.74,264.82,9.1,133.58,4.18,33.99019409,1.74519464,38.46
1003.586183,25.51458838,2.19,23.78,86.44,18,100.7978845,4.61,8.736,10.33,264.38,9.47,164.12,4.37,34.50053816,1.621611284,44.22
1003.368903,25.00394226,2.37,27.4,84.92,107.97,121.3139269,3.44,9.648,11.49,264.46,10.1,198.47,4.66,35.35953568,1.199870117,48.67
1004.586395,29.58358193,3.36,29.31,80.71,290.69,128.8668876,6.9,15.876,19.74,264.35,10.22,259.53,4.64,36.36125702,0.512490179,52.36
1003.057445,26.17418722,9.28,32.71,75.61,482.21,132.0943764,18.4,41.196,50.32,264.34,11.03,259.53,4.87,36.52280817,1.848441665,62.08
1005.042014,25.88676125,10.16,33.51,72.11,644.89,90.09182684,20.53,45.996,56.5,264.38,11.44,240.45,4.82,37.9677372,1.540621236,60.68
1006.15769,30.00339368,6.89,33.84,69.64,757.78,156.4899347,15.45,35.1,44.44,264.28,11.18,217.55,4.6,38.25242453,1.954717855,60.63
1007.652518,31.81605224,4.13,35.37,67.73,808.6,97.0971338,9.6,27.276,36.41,264.38,11.21,213.73,4.71,38.7555678,0.758686093,66.25
1010.925456,28.37578184,3.42,35.58,65.01,788.11,190.2125541,5.57,25.296,34.39,264.03,11.55,213.73,4.91,37.67916115,2.305159999,66.1
1009.09245,29.79687079,2.41,35.7,62.98,717.82,198.3294835,3.72,23.976,33.89,263.8,11.4,225.18,4.97,34.79630961,1.573904438,67.83
1006.631392,28.16119955,4.87,38.58,64.1,587.32,120.6651844,3.58,42.024,58.41,264,12.55,232.82,5.67,33.86562063,1.933464676,75.45
1012.338275,28.35841322,5.44,41.33,64.2,292.89,150.8541849,3.65,48.576,67.81,264,12.47,229,5.52,33.05672871,1.312747526,82.55
1002.917476,26.68269178,8.5,42.64,66.76,115.31,56.33416604,6.71,70.476,97.44,264.05,12.86,244.27,5.71,33.0457612,1.221200156,86.14
1007.501069,28.78132881,5.49,40.4,69.24,62.99,102.6494295,14.72,65.604,94.41,264.05,12.27,270.98,5.71,31.75303116,1.547477861,86.76
1008.00227,28.9326288,3.36,35.71,72.72,19.88,177.4298572,17.66,49.308,72.14,264.27,11.42,320.6,5.47,31.80262932,1.770299431,71.86
1012.499323,22.49228153,1.72,32.92,75.14,0,65.71128132,8.55,19.356,27.69,264.65,11.25,312.97,5.45,32.84874095,1.948101452,65.83
1011.352027,23.5847157,1.47,31.76,76.26,0,119.6451374,8.59,20.328,29.61,264.61,10.7,347.32,5.18,32.15604847,2.447078475,62.51
1008.422932,27.48342691,2.56,36.15,75.82,0,216.3567605,23.4,41.844,61.65,264.8,12.4,461.82,6.06,29.41707103,1.107166772,66.27
1005.225721,24.68460847,2.3,34.18,75,0,139.1351722,34.82,49.188,73.57,264.82,12.1,354.95,5.75,27.10582795,1.28557375,60.44
1003.30831,28.83383663,1.88,32.09,75.65,0,109.4053106,50.28,58.224,88.39,264.73,11.39,263.35,5.28,28.79916594,1.216920671,57.86
1010.049497,26.76761479,1.93,30.1,76.39,0,140.6856605,50.83,55.008,83.26,264.33,10.34,183.2,4.61,30.30192115,2.066619847,55.33
999.0361809,23.20422859,2.13,29.89,77.87,0,134.8457554,43.8,47.952,71.9,264.42,9.74,156.48,4.27,31.23062386,2.572540449,55.42
1009.097137,27.10359818,2.14,29.18,79.31,0,90.78422338,49.91,56.94,85.96,264.59,10.07,129.77,4.41,32.87773429,1.091661585,51.03
1001.723686,27.34256713,2.73,28.89,80.91,0,146.5495823,49.58,61.26,91.84,264.89,10.26,129.77,4.54,34.23536936,1.090939599,51.31
1006.469546,30.22323807,2.83,28.98,83.26,0,172.9941948,41.42,56.676,84.51,264.38,10.42,202.28,4.84,36.01596894,0.857575441,53.21
1003.240141,26.46170462,2.52,26.4,84.36,15.98,71.73666181,36.34,49.848,74.27,264.73,10.29,202.28,4.87,36.83962169,0.813483126,45.79
1010.58594,26.36132795,8.17,29.62,83.43,73.11,76.27927712,42.24,56.088,75.38,264.54,10.7,194.65,5.09,36.6614408,1.551049809,50.77
1006.709657,24.86190793,13.51,33.73,81.81,176.46,121.2454558,51.14,60.204,73.61,264.25,10.88,217.55,5.06,36.65188123,1.894493139,63.7
1004.799217,24.12177981,9.54,28.12,78.77,367.59,56.44044466,33,38.724,46.08,264.54,9.16,202.28,4.12,36.49909825,1.721976421,50.73
1008.290403,29.19833497,4.06,25.64,75.48,495.62,163.334268,12.95,17.736,21.58,264.45,8.11,183.2,3.37,34.96048124,2.766280082,46.01
1003.636285,28.07974979,3.37,25.08,72.64,523.5,153.7363307,9.14,14.652,17.79,264.04,8.13,183.2,3.34,34.56728007,2.171644321,46.13
1009.55883,25.79288698,2.65,22.65,70.33,535.95,142.9865169,4.88,8.244,8.86,264.08,7.55,179.38,3.19,35.68555038,2.394824541,39.41
1009.520391,25.40901733,3.06,23.37,68.6,686.42,131.4418133,4.45,10.932,12.44,264.41,8.1,145.03,3.45,38.5643052,0.981841801,39
1006.735704,26.33620033,3.6,23.98,67.7,663.49,75.07857508,5.09,13.764,16.06,264.18,8.11,133.58,3.48,84.98,1.464432806,41.19
1003.343467,25.73916619,3.74,26.16,67.36,489.99,137.4462925,4.79,18.504,23.29,264.16,8.59,156.48,3.73,90.63,0.936541578,45.76
1005.593747,24.78844192,3.89,29.69,68.84,296.13,139.6949674,5.31,23.58,31.01,264.16,9.2,198.47,3.85,86.47,2.339480583,57.77
1000.312216,26.39959966,3.01,32.76,71.78,159.83,126.4280956,8.28,22.428,30.55,264.34,9.16,244.27,3.76,85.51,2.187947222,69.58
1009.144756,27.26727435,2.43,34.01,73.42,68.07,177.528231,16.35,21.084,29.32,264.54,9.6,278.62,4.21,83.2,2.145742366,73.17
1004.813598,26.62511512,1.64,31.33,72.14,13.54,134.5559029,13.63,15.636,22,264.83,7.58,347.32,3.28,84.52,0.924272051,72.59
1008.929701,29.12367975,1.42,23.15,70.81,0,143.4718084,8.49,14.136,19.97,265,5.98,400.75,2.67,80.87,1.57102367,48.37
1008.631956,27.52818394,1.21,16.64,70.75,0,154.5789511,6.25,10.74,14.98,264.89,5.45,343.5,2.66,80.27,0.722007383,34.67
1006.707257,25.41030124,1.17,19.49,71.48,0,146.4648421,5.92,8.22,11.08,264.94,5.22,286.25,2.55,76.41,0.79313531,44.45
1005.79979,25.50795546,1.28,11.16,72.26,0,91.63977359,3.55,4.944,5.77,265,3.36,225.18,1.73,71.49,2.357831042,24.68
1009.369957,23.82233952,1.28,9.69,73.58,0,97.17644537,4.25,7.752,10.18,264.95,2.95,225.18,1.4,64.44,1.047560448,21.54
1004.237266,25.52974638,1.35,12.64,73.78,0,105.5760263,5.04,9.276,12.46,264.84,3.08,236.63,1.32,61.34,2.271192832,34.47
1010.280688,28.37134427,1.79,15.2,75.58,0,155.6422538,7.82,11.16,14.74,264.89,3.72,255.72,1.57,56.44,0.946497927,41.65
1001.537558,29.44237021,2.07,22.71,76.35,0,97.79737199,10.97,14.484,19.52,265,4.08,248.08,1.6,54.14,2.210520699,58.85
1009.657075,32.36939421,1.59,18.36,76.74,0,147.8866986,14.18,15.432,21.76,264.57,4.02,236.63,1.63,51.63,1.049289855,42.18
1006.648239,31.6134765,1.69,20.01,75.98,0,125.2638175,10.52,12.048,16.29,264.97,3.91,244.27,1.63,52,2.280854533,48.18
1005.041566,25.62648017,3.08,23.42,77.07,4.72,169.2424608,18.43,25.188,34.76,264.95,5.12,320.6,2.22,41.18,0.920619548,54.31
1013.105513,26.09141482,1.69,20.33,76.76,8.21,165.4877958,21,16.872,23.85,264.9,5.35,351.13,2.4,45.15,0.54522838,42.67
1006.587454,27.88318613,19.02,27.92,86.52,3.69,91.72230905,22.09,50.976,50.74,264.66,9.06,587.77,4.41,27.23,1.05943824,53.46
1003.438638,24.40967641,8.63,17.69,96.42,32,112.5545241,19.13,35.868,42.99,264.4,7.74,580.13,4.13,24.64,0.729876926,30
1013.332328,29.67045782,7.8,26.58,95.48,85.73,56.33342216,19.99,27.708,31.45,264.2,11.79,520.98,6.29,21.33,0.894218525,50.84
1006.115295,23.81937678,13.29,32.54,92.65,148.03,79.74423035,20.95,49.224,56.78,264.84,14.96,492.35,8.28,17.03,2.263057042,57.34
1009.222919,25.25319114,36.3,27.39,88.25,251.99,136.9901898,33.49,96.288,95.25,264.78,11.86,454.18,6.78,18.09,1.888399018,47.56
1004.286467,29.82921255,37.74,24.39,85.91,373.81,192.5214654,30.99,87.444,79.16,264.67,11.89,709.9,6.65,19.71,2.336375714,40.93
1008.593462,25.2565152,22.62,20.45,82.63,390.38,110.2686876,29.34,67.26,70.71,264.67,10.55,667.92,6.03,29.22,1.823167951,36.5
1000.636848,29.36214488,8.15,19.12,79.75,365.06,193.0890896,14.25,44.856,57.78,264.6,8.22,503.8,4.55,48.16,1.79189297,37.13
1005.305309,25.37703256,3.79,15.63,76.37,331.59,233.2766087,12.76,26.208,35.26,264.55,6.65,469.45,3.7,75.78,1.250010282,30.7
1006.352962,23.42613141,1.85,18.5,75.41,141.66,150.72198,14.99,29.604,43.56,264.78,7.25,507.62,3.9,86.84,2.101555041,34.05
1008.476171,24.10038103,3.71,24.26,75.85,51.11,138.1890109,38.73,88.26,132.66,264.78,8.91,526.7,4.68,63.37,1.255569415,45.87
1003.335274,28.56200382,1.64,18.44,80.29,6.63,124.3506188,23.18,51.12,77.62,264.89,7.17,446.55,3.66,85.38,0.395513271,36.22
1010.17731,27.76220071,0.92,12.2,84.65,0,108.6729917,5.31,17.76,26.43,265,5.51,366.4,2.57,96.95,1.870921648,21.95
1009.979056,25.27085171,0.74,17.85,85.43,0,155.9170963,4.41,16.836,25.27,265,6.88,347.32,3.05,87.05,2.190061055,31.96
1004.530274,29.85753851,0.98,32.16,85.99,0,146.0885109,14.03,29.808,45.23,264.75,10.53,385.48,4.73,61.61,3.226647459,61.15
1006.285093,31.43963406,3.35,35.11,87.86,0,111.8356721,34.82,73.044,109.36,264.75,12.44,431.28,5.77,28.67,1.713265106,65.26
1006.381928,25.49797623,1.25,24.89,89.82,0,174.3701302,33.93,44.94,68.53,265,9.77,385.48,4.74,39.18,1.419953345,41.84
1010.615228,31.88069775,1.92,26.05,89.43,0,83.23768812,29.3,37.956,56.56,265,9.09,358.77,4.54,32,1.831195123,46.25
1006.586028,26.95108626,1.89,29.61,87.58,0,86.21614747,19.61,29.82,43.83,265,10.1,316.78,5,33.85,3.007203586,53.91
1009.057378,28.52386593,1.15,25.4,85.37,0,148.9244578,17.17,14.04,20.23,264.95,9.59,270.98,4.94,39.75,0.34995061,48.32
1008.55828,25.5039675,1.07,25.27,83.59,0,125.0477845,11.13,10.116,14.21,265,9.54,259.53,4.97,45.48,2.442695719,46.72
1009.098085,28.08569381,1.6,29.55,83.39,0,113.2570652,8.16,14.856,20.83,265,10.49,270.98,5.37,43.09,1.759852206,53.89
1010.023649,24.35663796,2.35,36.16,83.74,4.77,167.6199591,10.86,27,38.7,265,11.75,374.03,5.76,33.06,0.885754258,69.38
1005.331199,30.5599482,3.02,32.37,81.07,22.01,165.7432899,10.16,23.964,32.92,264.9,11.12,427.47,5.54,38.68,2.244958196,62.39
1006.883875,27.60053986,7.74,36.72,82.58,62.38,188.7612879,22.78,40.608,51.78,264.87,12,629.75,5.71,31.73,0.979227924,68.7
1008.680243,27.79541877,7.4,41.62,81.23,75.09,182.3067337,26.93,41.688,53.99,264.82,12.89,706.08,5.7,34.85,1.705550785,81.54
1009.988728,24.6321313,3.59,43.01,77.49,75.32,71.8458318,13.7,20.796,27.09,264.95,12.78,393.12,5.35,47.95,1.055560171,84.96
1004.73497,25.51595508,2.08,34.17,72.43,249.34,111.2253392,9.9,11.424,14.72,265,10.59,240.45,4.7,59.67,1.052234794,68.6
1007.386382,26.01531145,3.32,36.42,69.68,358.45,116.1061758,13.2,15.792,19.68,265,11.43,229,5.22,68.27,1.544973437,73.53
1008.608361,27.07580514,2.01,38.94,71.56,219.33,109.409249,12.93,11.856,15.51,265,12.71,217.55,6.07,72.71,1.840029851,75.58
1009.553646,27.15055531,1.75,38.94,73.47,192.57,153.0341078,21.22,14.844,20.57,265,14.2,267.17,7.03,71.16,2.413177444,72.96
1005.801147,26.19442883,1.86,37.75,73.41,115.85,124.9035601,31.5,17.124,23.98,265,14.08,297.7,7.07,74.91,1.396604742,69.61
1007.29569,25.88682284,3.31,42.88,72.97,112.81,155.0671733,44.6,30.516,42.75,265,14.83,381.67,7.14,68.82,1.689702769,79.97
1010.512415,28.85081556,6.41,49.65,72.11,123.19,82.93662342,64.67,58.176,81.37,264.95,16.32,561.05,7.55,57.07,1.464152417,95.27
1009.103193,24.77609766,13.67,58.74,71.6,81.13,158.5561141,74.09,97.98,132.64,264.84,18.91,988.52,9.01,39.03,2.694112031,115.29
1004.996416,28.49519981,3.338181818,64.75,72.84,21.6,197.6452293,94.36,150.756,184.47,264.95,21.54,1568.65,10.68,18.75,0.34280634,130.73
1004.125914,23.34206233,3.493636364,82.41,76.28,0,83.23709537,77.07,140.232,168.07,264.89,24.55,1671.7,12.12,16.25,0.670028732,173.32
1003.347691,25.01362882,3.862727273,77.58,79.11,0,141.3453851,51.94,126.984,139.39,264.66,25.36,1706.05,12.85,17.05,1.373128235,150.79
1011.580728,26.40979629,4.830909091,79.71,80.8,0,132.3885578,49.12,155.352,129.21,265,25.65,1484.68,12.81,11.98,1.012479522,160.92
1011.869551,24.88306373,4.430743802,72.75,80.23,0,178.9866696,42.4,130.752,129.69,265,23.42,1064.85,11.67,11.61,1.275568066,144.11
1007.342708,26.27354136,4.075619835,66.61,80.8,0,123.9893926,38.53,101.412,117.78,265,23.15,1041.95,12.07,14.3,2.456039255,131.21
997.6493773,24.21146221,2.75,55.81,84.57,0,154.3909245,45.38,63.972,96.07,264.65,21.33,877.83,11.19,15.52,1.151583298,105.62
1002.219415,27.57192614,4.01,46.83,91.19,0,128.2268614,46.52,63.18,92.89,264.65,19.89,832.03,10.35,14.83,1.839341537,81.73
1008.646539,28.38141162,20.61,42.12,94.06,0,133.5800243,56.48,91.392,111.64,265,19.55,1282.4,10.2,12.75,1.463748474,66.32
1006.465656,29.03772734,27.9,48.28,93.83,0,63.90977469,57.51,89.472,97.44,265,20.92,1152.63,10.89,13.74,1.060878337,83.21
1008.014762,26.38692679,72.51,48.12,93.96,0,116.4813138,48.04,133.068,97.37,265,22.17,1549.57,11.84,11.58,1.774396297,79.85
1010.790795,26.13354103,60.68,61.45,94.06,15.25,163.2823028,45.95,116.556,89.5,264.98,22.38,1541.93,11.28,12.21,1.103382001,111.66
1007.67274,30.46050153,44.67,55.93,91.35,74.96,81.45508167,56.61,98.316,85.45,264.67,22.44,1465.6,11.75,15.63,2.408389303,97.78
1012.171014,29.25176201,21.42,49.14,86.87,169.1,159.8511196,64.79,66.168,70.85,264.53,21.66,1145,12.42,27.48,1.507703596,80.82
1006.9427,30.74467893,16.27,45.73,79.82,367.94,100.6110865,72.58,57.072,64.49,264.19,19.2,893.1,10.7,44.25,0.970013401,82.01
1009.078064,26.23312125,35.38,43.68,74.38,360.63,58.57811234,82.5,99.84,102.23,263.93,17.67,847.3,9.15,43.91,1.232214525,79.2
1009.524907,29.08584027,18.19,45.38,74.45,347.51,167.9017183,81.18,77.88,94.18,264.53,18.39,957.98,9.78,55.76,1.591222024,79.78
1008.456804,24.85202708,16.69,48.41,74.73,316.76,114.9515055,67.75,80.904,101.21,264.84,21.09,1045.77,11.65,63.86,2.102201696,80.19
1010.829853,28.95221013,10.43,44.99,74.69,357.44,151.177043,48.75,71.724,96.41,264.84,21.37,889.28,12.37,82.76,1.546415155,74.54
1012.059711,27.53521218,8.55,39.92,71.17,435.37,174.2081664,25.93,58.248,78.19,264.73,19.42,561.05,11.56,101.9,1.100488296,62.75
1008.077563,24.61463095,2,36.71,70.39,324.11,156.9901837,17.03,17.748,24.72,264.7,16.34,435.1,9.65,133.6,1.943871048,61.5
1004.958065,21.7602244,1.57,38.46,71.55,276.45,170.6018679,17.27,17.112,24.37,264.38,16.22,496.17,9.3,145.1,1.135663661,63.99
1007.401448,28.67785845,1.39,40.42,73.83,144.37,115.1690658,12.15,20.856,30.55,264.48,15.07,503.8,7.77,135.13,1.982775305,71.83
1009.048513,29.1423376,1.07,43.24,75.23,77.13,152.6989211,9.22,23.508,35.19,264.8,14.67,488.53,6.87,123.83,1.01842584,83.36
1010.327875,27.25961991,0.87,45.8,77.59,22.48,168.4025133,11.01,26.832,40.72,264.95,15.68,458,7.27,112.13,2.073155869,91.11
1005.32602,26.12420827,0.87,51.65,80.9,0,169.6962348,8.02,30,45.71,264.66,19.05,446.55,9.39,98.1,1.980727937,100.34
1008.90006,25.6803929,0.83,50.56,83.11,0,161.3318161,9.46,25.452,38.64,264.6,18.67,450.37,9.06,102.31,1.327091591,95.97
1008.835009,26.12942455,1.97,53.87,84.57,0,105.9049384,23.02,69.132,105.34,264.95,17.75,416.02,8.29,69.36,0.908862781,100.35
1009.662537,30.10663191,1.78,51.79,86.59,0,148.9225896,14.96,62.256,94.86,264.89,17.61,393.12,8.3,66.13,1.736268233,94.35
1005.039158,28.44832115,1.07,45.29,86.61,0,181.5249841,10.91,16.608,24.4,264.84,15.03,362.58,6.81,90.93,1.527066495,87.46
1005.801279,28.46396209,1.02,43.95,86.79,0,84.51068997,12.01,21.048,31.43,264.5,13.55,370.22,5.77,86.98,1.580965114,86.41
1002.06562,25.40776737,1.5,44.38,87.16,0,236.1436186,7.41,25.152,37.12,264.89,12.76,328.23,5.19,86.06,0.936800914,87.51
1008.976168,29.33842663,1.95,43.65,87.46,0,187.8742277,8.28,20.628,29.35,264.89,12.21,305.33,5.1,90.95,0.889245813,84.83
1005.300768,27.24208686,1.58,40.92,89,0,107.7222511,19.55,61.86,94.56,264.81,13.08,309.15,5.76,55.68,1.525819822,73.99
1001.58628,28.40370168,2.49,30.28,92.21,0,149.1310913,28.49,68.304,103.28,264.84,10.7,312.97,5.01,44.57,1.416278766,57
1009.712764,29.33937374,1.4,10.08,98.97,17.67,127.9984152,8.32,10.98,15.06,265,4.69,225.18,2.28,65.55,1.80403845,19.55
1010.068009,30.66577166,3.73,13.51,98.63,46.62,124.8020216,8.33,36.072,50.82,264.94,5.32,312.97,2.53,42.54,1.934999917,25.03
1007.358155,25.74209042,14.86,25.1,95.86,147.32,100.6691377,22.91,63.888,77.33,264.89,8.62,587.77,4.05,34.34,1.871711025,49.51
1006.676056,28.12838236,21.92,25.48,87.85,350.38,173.7168499,38.16,66.228,70.17,264.79,9.31,438.92,4.41,40.54,1.332090727,44.63
1006.282503,28.95666203,6.62,14.06,79.49,571.51,126.2908663,16.45,26.268,31.02,264.6,5.77,221.37,2.65,62.31,1.5983936,26.17
1008.449957,30.48899664,5.77,15.96,76.79,722.27,149.2599034,9.23,21.444,24.76,264.62,5.52,190.83,2.38,76.24,1.295747699,32.47
1008.983458,29.17957597,9.58,17.04,76.16,680.75,166.92337,13.61,32.484,36.07,264.78,6.17,179.38,2.66,70.79,2.22173618,33.14
1005.237079,29.78390171,10.52,10.81,74.36,724.05,110.3008971,21.5,32.964,35.38,264.67,4.92,125.95,2.22,65.72,0.674688796,18.36
1002.344412,28.75437244,5.41,6.5,70.28,730.29,88.61157215,11.36,15.144,15.44,264.38,3.13,76.33,1.37,74.53,2.47935404,11.91
1007.863468,31.26929066,2.33,6,68.67,575.5,71.00767437,4.66,5.772,5.47,264.2,2.48,76.33,1.08,84.72,1.548573475,12.5
1010.714917,25.95799478,2.13,8,70.31,268.01,128.6644405,5.89,9.06,10.92,263.97,2.73,103.05,1.16,87.46,0.895552583,15.88
1008.26452,26.56022734,2.37,8.64,75.27,161.48,116.1371809,5.17,13.284,17.19,264.37,3.23,145.03,1.39,83.76,1.876152621,17.37
1011.53139,27.62850272,2.17,10.7,80.33,81.83,174.3632092,4.69,15.036,20.25,264.82,3.77,175.57,1.68,76.58,1.593071921,21.81
1007.557568,32.02514954,1.56,11.54,82.78,14.86,102.5249554,4.34,15.288,21.58,264.89,3.82,179.38,1.71,68.79,1.371965903,22.76
1006.525286,26.67753283,1.31,12.15,86.19,0,96.79705008,4.62,15.276,21.93,265,4.18,198.47,2.01,61.25,2.141393753,22.46
1009.074769,25.38345691,1.78,13.6,88.89,0,237.4406672,9,28.404,41.78,264.89,5.13,190.83,2.58,43.99,2.163614874,24.63
1007.899154,28.94292418,2.19,12.59,88.47,0,106.9424891,12.78,37.416,55.28,264.84,5.13,145.03,2.65,39.5,0.809335819,22.03
1001.50527,31.95606744,1.38,8.02,87.72,0,108.5127173,6.85,7.824,10.14,264.89,3.23,87.78,1.65,57.35,2.109121593,13.22
999.8394087,28.87179948,1.28,7.51,88.94,0,161.3104801,8.3,10.74,14.86,264.66,2.96,61.07,1.46,55.06,1.543550798,13.05
1001.518656,24.88281347,1.28,8.23,90.11,0,215.6472754,8.18,13.296,18.88,264.44,2.71,61.07,1.25,52.23,1.914495281,14.82
1010.879562,28.08798353,1.47,8.78,89.84,0,170.3942036,5.77,10.728,14.58,264.85,2.29,57.25,1.01,55.85,2.011207652,17.83
1008.931128,28.6824661,1.8,7.22,89.94,0,144.4225138,7.5,14.496,19.97,264.94,2.27,53.43,1.03,51.94,1.907697969,15.67
1006.906756,26.38859808,1.35,8.7,92.14,0,102.0479336,8.24,20.4,29.92,264.59,2.73,61.07,1.24,40.33,1.471539958,18.53
1001.567621,26.90877111,1.4,10.19,92.86,0,136.9345286,9.54,19.272,28.04,264.54,3.2,122.13,1.45,34.54,1.913786443,20.03
1008.833887,24.59110576,1.67,14.03,91.91,4.25,146.8950161,8.62,16.896,23.88,264.95,4.5,274.8,2.08,37.74,1.54837553,27.33
1003.609376,28.64450463,2.35,15.59,91.98,22.52,108.8641343,5.99,17.244,23.42,264.78,5.29,561.05,2.5,37.66,1.466479098,29.36
1009.586568,27.03543128,3.4,15.83,91.75,83.39,172.0361546,10.78,19.512,25.38,264.36,5.23,458,2.63,41.75,1.471353608,29.74
1008.216709,31.18867625,3.67,15.16,87.96,258.98,101.3211213,8.52,17.232,21.36,264.14,4.99,335.87,2.33,56.73,1.829658962,28.13
1009.900263,31.97992916,2.98,13.98,81.98,410.4,194.6667494,4.81,12.516,15.02,264.4,4.96,244.27,2.29,67.3,2.285837517,25.77
1002.177074,22.47613623,3.5,13.62,77.57,664.38,117.6494252,6.81,12.264,13.86,264.66,4.96,179.38,2.27,72.66,2.357553702,24.01
1007.193305,23.39063532,3.29,13.68,75.32,690.85,113.4505754,6.04,10.128,10.82,264.62,4.77,141.22,2.14,71.77,2.802093859,23.96
1007.176162,29.25338939,1.86,12.9,74.66,566.01,73.80968719,4.07,5.82,6.25,264.85,4.62,118.32,2.1,73.53,1.974811222,23.65
1006.841051,26.11097813,2.28,11.85,73.14,600.73,119.0022889,4.29,6.216,6.24,264.62,4.46,106.87,1.99,74.58,0.865750949,21.66
1009.347916,27.0392905,2.78,12.36,70.94,460.43,115.9858222,3.56,6.636,6.12,264.43,4.12,106.87,1.76,80.17,2.275396152,24.04
1008.808512,22.72225395,2.68,13.27,70.99,227.46,139.9286952,5.13,8.604,9.36,264.16,4.25,114.5,1.74,82.88,1.181911872,28.02
1005.799159,29.27392577,2.34,13.97,72.47,156,158.7926691,5.37,9.768,11.7,264.11,4.11,133.58,1.74,80.03,0.520430665,31.51
1004.147235,27.43582291,2.26,14.69,77.23,89.37,132.5975216,5.59,12.372,15.93,264.09,4.72,171.75,2.09,73.49,1.070678499,29.58
1002.142025,24.77827976,1.62,15.64,82.47,21.37,130.896263,6.82,13.728,19.03,264.17,5.14,206.1,2.34,68.13,2.198057081,31.44
1011.001706,23.95922587,1.37,15.33,85.85,0,170.9183507,5.09,12.48,17.47,264.69,5.1,225.18,2.39,62.7,2.0373839,32.92
1006.815846,27.95920043,0.98,13.17,87.14,0,115.0902602,3.8,8.64,12.04,264.45,5.06,183.2,2.5,59.56,1.292746631,23.12
1005.320228,26.08443411,1.66,12.66,87.49,0,78.59338904,2.49,7.644,9.44,264.44,4.99,160.3,2.48,55.52,0.36699997,21.57
1006.950108,29.87107428,1.82,12.41,87.04,0,78.23717554,2.01,6.636,7.61,264.43,4.84,148.85,2.39,55.49,0.526303777,20.11
1006.692076,29.15839582,1.02,13.2,86.54,0,186.8945932,3.18,4.56,5.57,264.33,4.78,122.13,2.33,58.95,1.895471116,21.06
1008.537193,27.67788268,1.15,11.98,86.81,0,106.2742755,3.42,3.54,3.79,264.23,4.83,95.42,2.35,64.5,2.112613521,19.93
1006.734147,25.71515255,1.55,10.77,86.85,0,102.9596033,3.03,2.94,2.22,264.35,4.75,83.97,2.34,64.69,1.769458197,18.62
1005.288067,27.39766407,1.32,11.84,87.05,0,126.1281622,3.13,2.46,1.84,264.59,4.67,76.33,2.27,65.34,1.711801209,20.53
1004.282705,24.19508667,1.53,13.41,88.14,0,134.7456333,3.61,3.264,2.77,264.59,4.98,99.23,2.45,61.03,3.274983643,20.99
1004.879281,25.93939135,1.72,14.02,88.87,0,185.843926,5.39,5.028,5.24,264.61,5.36,141.22,2.75,53.94,2.06672936,23.03
1007.523795,25.75260284,1.51,15.47,89.21,10.42,70.57930472,9.33,9.72,12.92,264.48,5.74,244.27,2.91,44.61,1.290141978,26.77
1004.707308,24.27311863,3.11,17.27,88.63,96.17,147.7733055,12.27,15.276,19.19,264.22,6.21,305.33,3.12,39.26,2.520029452,30.83
1007.310202,28.6112983,3.79,17.25,84.48,249.93,149.1642551,12.1,14.496,16.92,264.06,5.56,278.62,2.72,45.94,2.22929435,33.38
1006.424591,26.01408108,4.27,14.05,79.57,397.46,109.0912362,7.53,14.424,16.06,263.88,4.81,225.18,2.26,57.61,1.143526198,28.47
1006.951046,22.22177087,4.09,15.36,75.4,496.99,90.70996648,5.24,14.064,15.76,263.75,4.91,206.1,2.17,70.84,0.898846659,29.97
1005.943447,27.47436643,3.32,14.45,69.47,731.69,169.120231,5.55,11.664,13.18,264.38,4.72,156.48,1.94,87.33,2.625033195,26.53
1010.791105,26.24279049,2.44,13.73,66.78,834.55,150.4250148,4.36,7.584,8.14,264.27,4.62,125.95,1.95,93.27,1.80625439,25.31
1006.827824,26.71563833,2.3,15.79,66.74,739.61,104.8389735,4.04,5.196,4.62,264,4.9,106.87,2.13,95.26,1.201740216,30.9
1011.441593,26.65783756,7.94,17.38,65.25,687.17,115.6504612,13.87,30.036,34.9,264,5.5,103.05,2.4,86.08,2.581482903,34.5
1009.1616,27.42627311,15.86,21.04,65.55,413.49,142.8232957,29.14,64.164,76.14,264,6.48,110.68,2.93,65.96,1.867973194,41.69
1008.9523,28.3598383,12.32,21.17,67.52,201.17,123.8490302,25.78,57.864,71.69,264,6.86,137.4,3.32,70.62,0.661759526,40.57
999.2241229,23.57060224,14.2,22.16,71.18,146.73,124.1053954,42.98,71.772,90.71,264.05,7.57,179.38,3.7,59.79,1.722678488,40.01
1004.066762,29.07946861,8.17,19.61,73.74,94.3,149.7605484,46.99,50.964,67.35,263.76,6.68,194.65,3.11,66.56,0.44511213,37.18
1007.888023,26.52972228,2.15,19.29,77.27,24.38,85.09580023,13.06,16.812,23.05,263.99,5.41,217.55,2.41,78.71,2.475742997,39.66
1005.683307,29.82661083,15.4,21.36,80.2,0,75.42071979,25.56,64.632,77.7,264.32,8.05,255.72,4.35,45.66,2.185211386,38.8
1007.241004,24.56143741,16.22,20.78,82.66,0,85.60840513,27.05,62.688,73.38,264.36,9.19,209.92,5.28,40.23,0.666782136,37.82
1004.606437,22.56767757,1.73,15.6,83.67,0,128.5548686,11.14,14.184,19.59,264.55,6.15,145.03,3.16,59.09,1.246271715,27.98
1011.528616,24.59905112,1.56,14.87,84.58,0,101.0370356,10.63,12.9,17.84,264.55,5.27,145.03,2.54,59.75,2.147597581,27.49
1007.742549,28.87039366,1.3,13.12,87.44,0,114.9657441,8.99,10.8,14.94,264.37,4.51,137.4,2.08,58.43,2.308154326,25.24
1001.290934,27.5271264,1.62,11.78,88.77,0,145.0892316,6.89,8.604,11.01,264.43,3.92,91.6,1.79,60.4,1.015489636,22.01
1006.659693,26.32310561,2.17,11.04,88.11,0,137.2130471,6.4,11.088,14.06,264.49,3.78,80.15,1.71,58.01,1.801988234,19.74
1007.86669,23.89644803,2.12,10.78,87.91,0,59.20921001,8.85,14.568,19.59,264.54,3.93,103.05,1.72,52.23,0.830283221,20.1
1001.702371,30.43738189,1.91,11.13,87.8,0,144.3864416,8.13,7.824,9.35,264.4,4.09,129.77,1.86,51.9,1.282393453,19.97
1011.393703,26.90800226,2.42,12.61,86.39,0,133.0491765,6.53,6.072,5.81,264.38,4.54,141.22,2.09,52.01,2.081618602,22.92
1006.32114,30.60507823,2.4,14.45,86.44,12.82,133.4253476,6.29,9.276,10.86,264.27,4.94,206.1,2.32,49.79,0.987414376,25.26
1004.801367,27.59116503,2.53,17.79,86.59,54.47,169.5442073,6.18,13.32,17,264.27,6.12,312.97,3.15,47.88,1.960433926,30.43
1007.338578,32.75251949,3.02,18.3,86.33,161.49,159.3325794,7.39,12.036,14.24,264.22,6.38,312.97,3.26,51.86,2.649961909,31.61
1008.169122,30.15153666,4.06,21.1,83.63,310.04,149.8711046,7.75,13.092,14.25,264.11,6.46,248.08,3.19,61.66,2.460005465,37.14
1005.878735,26.34176381,3.3,18.21,79.07,456.16,99.63329262,6.46,11.22,12.49,264.11,5.93,209.92,2.81,71.83,1.321130493,31.68
1009.196273,24.72504516,3.06,17.89,76.04,442.39,100.051255,5.73,9.84,10.73,264.11,5.96,213.73,2.65,75.33,1.699025556,32.93
1004.846891,25.33360443,3.65,17.87,73.88,439.1,103.8285465,4.97,11.472,12.4,263.75,5.96,175.57,2.61,74.35,1.506873192,35.71
1010.786467,29.44255453,6.54,20.74,72.71,307.51,235.5364442,15.53,27.36,32.82,264.11,6.72,156.48,2.92,63.76,1.457341766,38.37
1008.890859,26.89027574,9.23,21.68,76.87,118.39,121.0769175,37.94,54.804,71.74,264.25,7.99,187.02,3.75,45.06,1.079744292,41.52
1011.133192,27.61221053,4.63,20.45,89.73,42.77,146.298074,17.88,37.416,51.55,264.46,8.28,503.8,3.79,46.43,1.868010916,37.33
1008.102186,26.08793428,2.53,18.15,94.62,17.35,134.0901315,7.79,32.04,46.34,264.6,6.73,687,3.16,48.15,1.680956444,37.3
1006.267702,27.73515236,3.47,18.55,95.58,21.88,151.2389165,11.04,36.804,52.37,264.6,6.4,1114.47,3.05,48.21,0.944522362,39.45
1003.918841,24.64505491,3.58,16.53,93.45,28.17,90.44097663,11.99,35.58,50.28,264.44,5.2,526.7,2.52,45.05,1.776428921,35.32
1009.23217,29.30702097,3.19,17.42,93.24,10.23,114.5837828,11.75,43.5,63.29,264.38,5.62,618.3,2.67,35.01,1.827907774,35.7
1009.553595,24.58315368,3.12,17.6,91.26,0.18,131.0752744,8.88,45.228,66.09,264.22,5.91,499.98,2.77,28.8,1.019950864,35.35
1009.55606,25.72994652,3.18,22.68,89.84,0.17,150.1286701,11.61,48.624,71.33,264.26,6.95,416.02,3.23,23.63,0.818708343,46.31
1012.776597,23.1870193,2.88,24.84,91.36,0.02,138.3827266,14.52,51.48,76.27,264.2,7.65,419.83,3.53,20.01,1.646756718,51.96
1009.086792,29.0958599,3.69,23.95,91.85,0.01,189.0157506,14.31,46.332,66.95,264.4,7.77,358.77,3.57,21.19,2.672179941,47.17
1013.290596,26.56591358,2.54,19.98,92.72,0,85.85761352,11.87,30.36,43.69,264.38,6.41,221.37,2.96,29.48,1.306187555,37.82
1004.697706,26.05563753,2.55,17.89,94.13,0,57.16309857,9.84,28.872,41.34,264.27,5.65,213.73,2.41,29.48,0.846756954,32.79
1011.247535,31.82073184,2.28,16.73,95.02,0,81.32465198,10.61,32.64,47.61,264.16,5.11,225.18,2.1,24.32,0.90930111,30.9
1003.822417,26.54039994,5.03,17.31,95.13,0,118.370306,14.05,50.616,71.62,264.12,4.99,229,2.05,16.34,0.944260821,34.24
1007.364615,30.5668964,6.84,18.6,94.56,0,140.801823,14.23,58.008,80.44,264.05,5.39,194.65,2.22,16.66,1.891909804,36
1009.308844,28.3302652,3.69,17.74,94.06,0,128.2638975,13.86,47.808,69.26,264.15,5.81,164.12,2.53,22.19,2.042122073,32.25
1004.916014,27.3303517,2.3,13.23,97.98,4.78,159.5582046,9.81,22.92,32.4,264.19,5.32,148.85,2.36,53.38,1.773119459,23.21
1006.906944,30.91985518,3.46,8.94,99.24,41.66,171.9706302,5.26,25.332,34.4,263.86,3.5,400.75,1.57,54.08,1.960335606,19.36
